59322335,1566499854,1206B,OK
59322272,1566499765,1206B,WRONG_ANSWER
59244433,1566425040,1083E,TIME_LIMIT_EXCEEDED
59244379,1566424876,1083E,WRONG_ANSWER
59244369,1566424831,1083E,WRONG_ANSWER
59244327,1566424696,1083E,TIME_LIMIT_EXCEEDED
59243196,1566421293,1083E,TIME_LIMIT_EXCEEDED
59243131,1566421159,1083E,TIME_LIMIT_EXCEEDED
59242165,1566418841,1083E,TIME_LIMIT_EXCEEDED
59242143,1566418795,1083E,TIME_LIMIT_EXCEEDED
59242113,1566418738,1083E,TIME_LIMIT_EXCEEDED
59202555,1566365877,1083E,TIME_LIMIT_EXCEEDED
59202222,1566365231,1083E,TIME_LIMIT_EXCEEDED
59202195,1566365182,1083E,WRONG_ANSWER
59202166,1566365131,1083E,WRONG_ANSWER
59202116,1566365060,1083E,RUNTIME_ERROR
59202007,1566364904,1083E,TIME_LIMIT_EXCEEDED
59201888,1566364744,1083E,TIME_LIMIT_EXCEEDED
59201835,1566364658,1083E,TIME_LIMIT_EXCEEDED
59201801,1566364600,1083E,TIME_LIMIT_EXCEEDED
59201205,1566363388,1083E,TIME_LIMIT_EXCEEDED
59200714,1566362159,1083E,TIME_LIMIT_EXCEEDED
59052358,1566150134,1206D,OK
59050704,1566148377,1206D,WRONG_ANSWER
59050593,1566148281,1206D,WRONG_ANSWER
59050552,1566148240,1206D,WRONG_ANSWER
59050377,1566148087,1206D,WRONG_ANSWER
59050096,1566147866,1206D,WRONG_ANSWER
59050028,1566147794,1206D,WRONG_ANSWER
59049789,1566147588,1206D,WRONG_ANSWER
59049665,1566147485,1206D,WRONG_ANSWER
59049460,1566147342,1206D,WRONG_ANSWER
58935138,1566012960,1203C,OK
58843757,1565840839,1203E,OK
58632033,1565555354,1200E,OK
58628338,1565548022,1200C,OK
58628248,1565547870,1200C,WRONG_ANSWER
58628162,1565547732,1200C,WRONG_ANSWER
58627645,1565546928,1200B,OK
58627485,1565546701,1200B,WRONG_ANSWER
58626647,1565545480,1200A,OK
58626597,1565545398,1200A,WRONG_ANSWER
58626439,1565545171,1200A,WRONG_ANSWER
58147782,1564702803,1199B,OK
57694511,1563986043,1196E,OK
57692084,1563985644,1196E,WRONG_ANSWER
57686288,1563984546,1196E,WRONG_ANSWER
57672738,1563982205,1196D2,OK
57672008,1563982096,1196D2,RUNTIME_ERROR
57671055,1563981951,1196D1,OK
57658359,1563980249,1196C,OK
57654229,1563979764,1196B,OK
57652826,1563979598,1196B,WRONG_ANSWER
57652268,1563979534,1196B,WRONG_ANSWER
57647205,1563979100,1196A,OK
57012474,1563098374,1184A2,OK
57012413,1563098246,1184A2,WRONG_ANSWER
57012301,1563098052,1184A2,WRONG_ANSWER
57012257,1563097976,1184A2,WRONG_ANSWER
57012186,1563097864,1184A2,WRONG_ANSWER
57010019,1563093865,1184A2,TIME_LIMIT_EXCEEDED
57008741,1563091650,1184A1,OK
57008722,1563091617,1184A1,WRONG_ANSWER
54459153,1558460231,794B,OK
54459143,1558460201,794B,COMPILATION_ERROR
54459126,1558460145,794B,WRONG_ANSWER
54459106,1558460095,794B,WRONG_ANSWER
54459086,1558460057,794B,COMPILATION_ERROR
54395630,1558295275,1096C,OK
54395615,1558295248,1096C,COMPILATION_ERROR
54037184,1557674694,1159C,OK
54036949,1557674602,1159C,WRONG_ANSWER
54033211,1557673237,1159B,OK
54029899,1557672221,1159A,OK
54014004,1557638402,1156D,WRONG_ANSWER
54013593,1557637039,1156D,WRONG_ANSWER
54008730,1557614964,1156A,OK
54008556,1557613926,1156A,WRONG_ANSWER
54008502,1557613678,1156A,WRONG_ANSWER
54008463,1557613475,1156A,WRONG_ANSWER
54008449,1557613415,1156A,WRONG_ANSWER
53856129,1557246047,1139C,OK
53855996,1557245732,1139C,WRONG_ANSWER
53828773,1557166396,1162C,OK
53827833,1557163849,1162B,OK
53827541,1557162974,1162A,OK
53827500,1557162845,1162A,WRONG_ANSWER
53827422,1557162594,1162A,COMPILATION_ERROR
53588965,1556657551,1114C,OK
53588927,1556657425,1114C,WRONG_ANSWER
53582899,1556642317,1152C,OK
53581382,1556639605,1107B,OK
53387993,1556341440,101021A,OK
53387985,1556341398,101021A,COMPILATION_ERROR
53382270,1556324396,1117D,OK
53382240,1556324257,1117D,RUNTIME_ERROR
53381067,1556318516,1141E,OK
53305201,1556244828,1141C,OK
53305129,1556244461,1141C,WRONG_ANSWER
53162239,1555951591,1155B,OK
53160056,1555950647,1155D,CHALLENGED
53157509,1555950018,1155D,WRONG_ANSWER
53156582,1555949761,1155D,WRONG_ANSWER
53155312,1555949401,1155D,WRONG_ANSWER
53154789,1555949265,1155D,WRONG_ANSWER
53152704,1555948683,1155D,WRONG_ANSWER
53152412,1555948607,1155D,WRONG_ANSWER
53147145,1555947273,1155A,OK
53146054,1555947018,1155C,OK
52992968,1555634637,1105C,OK
52878820,1555450967,1141A,OK
52865529,1555432329,1154D,OK
52854932,1555429974,1154C,OK
52845829,1555428070,1154C,WRONG_ANSWER
52843791,1555427672,1154C,WRONG_ANSWER
52833447,1555426052,1154B,OK
52829024,1555425538,1154A,OK
52755923,1555260858,371B,OK
52755794,1555260517,371B,WRONG_ANSWER
52755222,1555259123,1153B,OK
52754222,1555256884,1153A,OK
52753999,1555256470,1153A,WRONG_ANSWER
52753960,1555256388,1153A,WRONG_ANSWER
52753917,1555256307,1153A,WRONG_ANSWER
52753889,1555256246,1153A,COMPILATION_ERROR
52753587,1555255577,1153A,WRONG_ANSWER
52753509,1555255419,1153A,WRONG_ANSWER
52753333,1555255098,1153A,WRONG_ANSWER
52753237,1555254959,1153A,WRONG_ANSWER
52737918,1555226722,1136C,OK
52737699,1555226360,1136C,TIME_LIMIT_EXCEEDED
52737521,1555225947,1136C,TIME_LIMIT_EXCEEDED
52289701,1554334768,1145A,OK
51314338,1552600909,1133F1,OK
51314313,1552600837,1133F1,WRONG_ANSWER
51186845,1552325757,1136C,TIME_LIMIT_EXCEEDED
51186506,1552325627,1136C,TIME_LIMIT_EXCEEDED
51177862,1552323263,1136B,OK
51172327,1552322354,1136A,OK
50744666,1551628511,1121B,OK
50741577,1551627731,1121A,OK
50704112,1551578733,1131C,OK
50704078,1551578579,1131C,COMPILATION_ERROR
50649116,1551459356,1131B,OK
50649006,1551459210,1131B,WRONG_ANSWER
50648914,1551459080,1131B,WRONG_ANSWER
50642588,1551450762,1131B,WRONG_ANSWER
50546511,1551218091,1131B,WRONG_ANSWER
50546464,1551217857,1131B,WRONG_ANSWER
50546429,1551217697,1131B,WRONG_ANSWER
50546403,1551217571,1131B,COMPILATION_ERROR
50546380,1551217460,1131B,COMPILATION_ERROR
50546204,1551216830,1131A,OK
50546192,1551216796,1131A,WRONG_ANSWER
47877269,1546531796,4A,OK
47877232,1546531728,4A,WRONG_ANSWER
47587787,1545927921,1095D,WRONG_ANSWER
47587375,1545927811,1095D,COMPILATION_ERROR
47587218,1545927757,1095D,COMPILATION_ERROR
47586945,1545927684,1095D,TIME_LIMIT_EXCEEDED
47581960,1545926332,1095E,WRONG_ANSWER
47580863,1545926059,1095E,RUNTIME_ERROR
47574223,1545924455,1095D,WRONG_ANSWER
47568074,1545923170,1095C,OK
47560611,1545922054,1095B,OK
47557767,1545921782,1095A,OK
46234549,1543192802,1057C,OK
46234525,1543192702,1057C,WRONG_ANSWER
44215537,1539361527,1066E,WRONG_ANSWER
44215259,1539361451,1066E,WRONG_ANSWER
44213869,1539361058,1066E,WRONG_ANSWER
44213452,1539360933,1066E,WRONG_ANSWER
44202351,1539357911,1066C,OK
44196937,1539356669,1066B,OK
44191766,1539355531,1066A,OK
43052563,1537313111,1041E,OK
43051043,1537306852,1041E,WRONG_ANSWER
43051022,1537306774,1041E,WRONG_ANSWER
43050991,1537306666,1041E,WRONG_ANSWER
43050978,1537306614,1041E,WRONG_ANSWER
43050958,1537306551,1041E,WRONG_ANSWER
43050927,1537306474,1041E,WRONG_ANSWER
43050899,1537306389,1041E,WRONG_ANSWER
43050869,1537306296,1041E,WRONG_ANSWER
43050832,1537306195,1041E,WRONG_ANSWER
43050802,1537306079,1041E,WRONG_ANSWER
43050748,1537305783,1041E,WRONG_ANSWER
43050726,1537305679,1041E,WRONG_ANSWER
43050440,1537304644,1041E,WRONG_ANSWER
43050431,1537304596,1041E,WRONG_ANSWER
43050419,1537304540,1041E,WRONG_ANSWER
43050402,1537304453,1041E,WRONG_ANSWER
43050310,1537304090,1041E,WRONG_ANSWER
43050296,1537304018,1041E,WRONG_ANSWER
43050268,1537303898,1041E,WRONG_ANSWER
43050008,1537302995,1041E,WRONG_ANSWER
43041920,1537286498,1041E,WRONG_ANSWER
43041874,1537286409,1041E,WRONG_ANSWER
43041824,1537286297,1041E,WRONG_ANSWER
43041778,1537286232,1041E,WRONG_ANSWER
43041749,1537286179,1041E,WRONG_ANSWER
43041591,1537285952,1041E,WRONG_ANSWER
43041480,1537285776,1041E,WRONG_ANSWER
43040503,1537284256,1041E,WRONG_ANSWER
43039911,1537283429,1041E,WRONG_ANSWER
43019241,1537239470,1041E,WRONG_ANSWER
43019233,1537239444,1041E,WRONG_ANSWER
43017403,1537232080,1041E,WRONG_ANSWER
43017255,1537231292,1041E,WRONG_ANSWER
43017209,1537231055,1041E,WRONG_ANSWER
43016517,1537227475,1041E,WRONG_ANSWER
42969168,1537158875,1041D,OK
42968857,1537157635,1041D,RUNTIME_ERROR
42968832,1537157520,1041D,RUNTIME_ERROR
42943631,1537100358,1041C,OK
42936712,1537098099,1041B,OK
42936459,1537098029,1041B,WRONG_ANSWER
42929999,1537096192,1041B,WRONG_ANSWER
42928495,1537095837,1041A,OK
42926514,1537095388,1041A,WRONG_ANSWER
41542499,1534123729,1005D,OK
41440451,1533923757,1003C,OK
41440376,1533923599,1003C,WRONG_ANSWER
41433411,1533908719,998B,OK
41057201,1533054490,1015D,WRONG_ANSWER
41053181,1533053509,1015B,OK
41052779,1533053406,1015B,WRONG_ANSWER
41052180,1533053242,1015B,WRONG_ANSWER
41050698,1533052876,1015B,WRONG_ANSWER
41047197,1533052031,1015C,OK
41044728,1533051459,1015B,WRONG_ANSWER
41044237,1533051349,1015B,WRONG_ANSWER
41043922,1533051281,1015B,WRONG_ANSWER
41036920,1533049822,1015A,OK
40826111,1532660785,1010A,OK
40825907,1532660397,1010A,WRONG_ANSWER
40625373,1532238082,25A,OK
40621724,1532225838,1008B,OK
