52242994,1554226467,677B,TIME_LIMIT_EXCEEDED
52241947,1554221930,764A,OK
52228044,1554201587,778A,OK
52227979,1554201466,778A,WRONG_ANSWER
51613109,1553167348,559B,OK
51612924,1553167061,559B,TIME_LIMIT_EXCEEDED
51215078,1552384804,1133F1,OK
51215022,1552384710,1133F1,WRONG_ANSWER
51214846,1552384379,1133F1,WRONG_ANSWER
50973593,1551977943,1133F1,WRONG_ANSWER
50972258,1551977713,1133F1,WRONG_ANSWER
50967865,1551976906,1133F1,WRONG_ANSWER
50957195,1551975005,1133D,OK
50945919,1551973244,1133C,OK
50942037,1551972677,1133B,OK
50935191,1551971626,1133A,OK
50128517,1550510703,1117C,WRONG_ANSWER
50127338,1550510294,1117C,WRONG_ANSWER
50126649,1550510055,1117C,WRONG_ANSWER
50125492,1550509662,1117C,WRONG_ANSWER
50108998,1550505272,1117B,OK
50104404,1550504712,1117A,OK
49170583,1548784975,490B,OK
49170272,1548784553,490B,WRONG_ANSWER
48747736,1548171465,1104C,OK
48740183,1548169924,1104C,WRONG_ANSWER
48739003,1548169715,1104C,WRONG_ANSWER
48728546,1548168281,1104B,OK
48724528,1548167909,1104A,OK
48643325,1548000783,292B,OK
48531267,1547812947,26B,OK
48530893,1547812219,270B,OK
48529065,1547808129,300B,OK
48527908,1547805651,236B,OK
48484422,1547710984,546D,OK
48484339,1547710854,546D,TIME_LIMIT_EXCEEDED
48484229,1547710637,546D,TIME_LIMIT_EXCEEDED
48384399,1547467950,349B,OK
48384388,1547467929,349B,WRONG_ANSWER
48384278,1547467688,349B,TIME_LIMIT_EXCEEDED
48378671,1547457069,349B,TIME_LIMIT_EXCEEDED
48378650,1547457024,349B,WRONG_ANSWER
48377313,1547454134,522A,OK
46964908,1544697873,369C,OK
46964651,1544697333,369C,WRONG_ANSWER
46964519,1544697059,369C,WRONG_ANSWER
46964378,1544696712,369C,WRONG_ANSWER
46940063,1544630596,295A,OK
46940016,1544630492,295A,WRONG_ANSWER
46939980,1544630429,295A,WRONG_ANSWER
46939230,1544628917,476B,OK
46929378,1544611746,217A,OK
46928900,1544610642,230B,OK
46928830,1544610470,230B,WRONG_ANSWER
46928563,1544609934,189A,OK
46908979,1544543364,476A,OK
46908861,1544543117,476A,WRONG_ANSWER
46908118,1544541681,59A,OK
46907920,1544541317,334A,OK
46907520,1544540618,112A,OK
46907365,1544540280,110A,OK
46907072,1544539750,136A,OK
45014343,1540746000,1043D,OK
45003494,1540742361,1043B,OK
44997099,1540741199,1043A,OK
41849753,1534689161,1025B,WRONG_ANSWER
41847235,1534688567,1025B,WRONG_ANSWER
41831023,1534686022,1025A,OK
40805673,1532623081,1011C,TIME_LIMIT_EXCEEDED
40804328,1532622685,1011C,TIME_LIMIT_EXCEEDED
40803742,1532622510,1011C,TIME_LIMIT_EXCEEDED
40802078,1532622030,1011C,TIME_LIMIT_EXCEEDED
40801094,1532621749,1011C,WRONG_ANSWER
40800074,1532621455,1011C,TIME_LIMIT_EXCEEDED
40789279,1532618886,1011B,OK
40784495,1532618045,1011A,OK
39577068,1529775116,991E,TIME_LIMIT_EXCEEDED
39572988,1529773705,991D,OK
39566548,1529771682,991D,WRONG_ANSWER
39562589,1529770666,991C,OK
39554596,1529769258,991B,OK
39550492,1529768777,991A,OK
39546292,1529768390,991A,WRONG_ANSWER
39388330,1529346881,992B,TIME_LIMIT_EXCEEDED
39376524,1529343546,992C,OK
39376393,1529343512,992C,COMPILATION_ERROR
39376066,1529343428,992C,WRONG_ANSWER
39368303,1529341436,992B,WRONG_ANSWER
39368085,1529341381,992B,WRONG_ANSWER
39367696,1529341289,992B,WRONG_ANSWER
39366283,1529340911,992B,WRONG_ANSWER
39365981,1529340823,992B,WRONG_ANSWER
39364704,1529340465,992B,WRONG_ANSWER
39361922,1529339922,992A,OK
36980285,1522868677,246D,OK
36979951,1522867702,246D,WRONG_ANSWER
36979868,1522867451,246D,WRONG_ANSWER
36979852,1522867412,246D,WRONG_ANSWER
36979825,1522867348,246D,WRONG_ANSWER
36979640,1522866876,246D,WRONG_ANSWER
36979566,1522866669,246D,WRONG_ANSWER
36979508,1522866513,246D,WRONG_ANSWER
36979464,1522866374,246D,WRONG_ANSWER
36965539,1522854296,118D,OK
36964509,1522853945,118D,COMPILATION_ERROR
36903149,1522760741,489D,OK
36874774,1522663807,448D,OK
36802339,1522596521,448D,WRONG_ANSWER
36801717,1522594540,448D,WRONG_ANSWER
36798120,1522586288,414B,OK
36797166,1522583978,493D,OK
36677396,1522177539,339D,OK
36677385,1522177469,339D,TIME_LIMIT_EXCEEDED
36677260,1522177020,339D,WRONG_ANSWER
36671330,1522161742,208D,OK
36671299,1522161684,208D,WRONG_ANSWER
36670963,1522160908,474D,OK
36670742,1522160460,474D,WRONG_ANSWER
36670663,1522160294,474D,WRONG_ANSWER
36642923,1522068811,343B,OK
36642059,1522067096,343B,WRONG_ANSWER
36642025,1522067008,343B,COMPILATION_ERROR
36641697,1522066377,584D,OK
36641595,1522066186,584D,OK
36622581,1521996142,546C,OK
36622462,1521995812,546C,WRONG_ANSWER
36622444,1521995769,546C,WRONG_ANSWER
36622422,1521995717,546C,COMPILATION_ERROR
36622244,1521995216,546C,WRONG_ANSWER
36513191,1521744656,219D,OK
36509996,1521737438,446B,WRONG_ANSWER
36509797,1521737029,446B,WRONG_ANSWER
36509573,1521736510,446B,WRONG_ANSWER
36509517,1521736398,446B,WRONG_ANSWER
36509264,1521735778,446B,WRONG_ANSWER
36509144,1521735497,446B,WRONG_ANSWER
36509068,1521735335,446B,WRONG_ANSWER
36509004,1521735167,446B,WRONG_ANSWER
36449673,1521623796,166E,OK
36437045,1521560560,91B,OK
36437029,1521560515,91B,RUNTIME_ERROR
36436955,1521560308,91B,WRONG_ANSWER
35449981,1518967509,939D,OK
35449172,1518965565,939C,OK
35449139,1518965476,939C,OK
35448655,1518964426,939C,WRONG_ANSWER
35448505,1518964062,939C,WRONG_ANSWER
35447664,1518962160,939B,OK
35447639,1518962104,939B,WRONG_ANSWER
35447609,1518962045,939B,COMPILATION_ERROR
35447586,1518961986,939B,COMPILATION_ERROR
35447421,1518961636,939A,OK
35446771,1518960011,920F,OK
35446618,1518959660,920F,TIME_LIMIT_EXCEEDED
35446557,1518959542,920F,RUNTIME_ERROR
35131604,1518281084,297B,OK
35131216,1518280212,297B,TIME_LIMIT_EXCEEDED
35130951,1518279549,297B,WRONG_ANSWER
35130769,1518279062,297B,TIME_LIMIT_EXCEEDED
35130613,1518278735,297B,TIME_LIMIT_EXCEEDED
35130124,1518277629,297B,TIME_LIMIT_EXCEEDED
35130104,1518277590,297B,COMPILATION_ERROR
35129959,1518277259,297B,TIME_LIMIT_EXCEEDED
35129747,1518276852,297B,MEMORY_LIMIT_EXCEEDED
35125958,1518269735,650B,OK
35125924,1518269659,650B,WRONG_ANSWER
35125851,1518269537,650B,WRONG_ANSWER
35123887,1518265622,650B,WRONG_ANSWER
35123397,1518264607,650B,WRONG_ANSWER
34900440,1517677848,920C,OK
34900101,1517677255,920A,OK
34900002,1517677076,920B,OK
34899758,1517676652,920B,WRONG_ANSWER
34355098,1516456907,34D,OK
34282450,1516296500,739B,OK
34282402,1516296382,739B,WRONG_ANSWER
34282203,1516295819,739B,WRONG_ANSWER
34282082,1516295474,739B,TIME_LIMIT_EXCEEDED
34282020,1516295364,739B,TIME_LIMIT_EXCEEDED
34281600,1516294243,739B,TIME_LIMIT_EXCEEDED
34281578,1516294170,739B,TIME_LIMIT_EXCEEDED
34281522,1516294018,739B,TIME_LIMIT_EXCEEDED
34281499,1516293936,739B,TIME_LIMIT_EXCEEDED
34231802,1516133474,4D,OK
34231601,1516132835,4D,WRONG_ANSWER
34231579,1516132749,4D,WRONG_ANSWER
34231549,1516132652,4D,WRONG_ANSWER
34230597,1516129509,4D,WRONG_ANSWER
34230570,1516129429,4D,WRONG_ANSWER
34230496,1516129232,4D,WRONG_ANSWER
34145848,1515853573,107A,OK
34145599,1515853486,107A,WRONG_ANSWER
34124730,1515839915,103B,OK
34124677,1515839711,103B,WRONG_ANSWER
34071578,1515596197,482B,OK
34071521,1515596002,482B,WRONG_ANSWER
34071371,1515595563,482B,WRONG_ANSWER
34071329,1515595406,482B,WRONG_ANSWER
34069566,1515590302,437C,OK
34046949,1515497034,500A,OK
34046886,1515496840,500A,WRONG_ANSWER
34046854,1515496731,500A,TIME_LIMIT_EXCEEDED
34046212,1515494637,474B,OK
32017346,1509726003,732D,OK
32016090,1509725739,732D,WRONG_ANSWER
32013028,1509725045,732D,WRONG_ANSWER
32012838,1509724608,732D,WRONG_ANSWER
32010197,1509719108,670D2,OK
32009816,1509718484,670D2,WRONG_ANSWER
32009803,1509718453,670D2,COMPILATION_ERROR
32009735,1509718352,670D2,WRONG_ANSWER
32009702,1509718311,670D2,COMPILATION_ERROR
32009446,1509717896,670D2,WRONG_ANSWER
31953688,1509547094,567D,OK
31953578,1509546863,567D,WRONG_ANSWER
31868277,1509284410,706C,WRONG_ANSWER
31868204,1509284264,706C,WRONG_ANSWER
31863955,1509274565,459D,OK
31863924,1509274492,459D,TIME_LIMIT_EXCEEDED
31863880,1509274419,459D,WRONG_ANSWER
31849167,1509218974,723D,OK
31849146,1509218923,723D,WRONG_ANSWER
31848718,1509217698,723D,WRONG_ANSWER
31848435,1509216825,723D,WRONG_ANSWER
31848371,1509216688,723D,WRONG_ANSWER
31848172,1509216202,723D,WRONG_ANSWER
31848162,1509216169,723D,WRONG_ANSWER
31846756,1509212924,552D,OK
31846713,1509212823,552D,OK
31846681,1509212748,552D,WRONG_ANSWER
31846604,1509212586,552D,WRONG_ANSWER
31846489,1509212358,552D,WRONG_ANSWER
31751631,1509031273,879B,OK
31744772,1509029990,879A,OK
31741810,1509029542,879A,WRONG_ANSWER
31632985,1508770262,204B,OK
31632934,1508770163,204B,WRONG_ANSWER
31628712,1508762187,165C,OK
31627272,1508759346,637B,OK
31626618,1508757920,271B,OK
31169935,1507559015,86D,OK
30206886,1504886563,271D,OK
29994154,1504287098,849B,OK
29993147,1504284601,849A,OK
29789832,1503685664,494A,WRONG_ANSWER
29789626,1503685174,494A,WRONG_ANSWER
29789357,1503684473,494A,WRONG_ANSWER
29788300,1503681931,545D,OK
29788000,1503681157,545D,WRONG_ANSWER
29619394,1503228167,276C,OK
29619363,1503228082,276C,WRONG_ANSWER
29619267,1503227808,276C,TIME_LIMIT_EXCEEDED
29619247,1503227729,276C,WRONG_ANSWER
29618750,1503226164,20C,OK
29618725,1503226115,20C,WRONG_ANSWER
29576710,1503073961,696A,OK
29567126,1503070642,696A,WRONG_ANSWER
29564725,1503070096,696A,TIME_LIMIT_EXCEEDED
29555530,1503066736,145A,OK
29531364,1502989982,484A,OK
29531335,1502989850,484A,WRONG_ANSWER
29531272,1502989664,484A,TIME_LIMIT_EXCEEDED
29531246,1502989605,484A,RUNTIME_ERROR
29531176,1502989370,484A,TIME_LIMIT_EXCEEDED
29531088,1502989136,484A,WRONG_ANSWER
29530740,1502988119,484A,WRONG_ANSWER
29529176,1502983406,288A,OK
29504656,1502885524,701C,OK
29504574,1502885287,701C,WRONG_ANSWER
29504494,1502885073,701C,WRONG_ANSWER
29503956,1502883622,545C,OK
29503851,1502883178,545C,TIME_LIMIT_EXCEEDED
29502811,1502880116,461A,OK
29502798,1502880081,461A,WRONG_ANSWER
29484264,1502808709,573A,OK
29483761,1502807065,285C,OK
29483747,1502807029,285C,WRONG_ANSWER
29483619,1502806617,4C,OK
29483343,1502805740,258A,OK
29483091,1502805108,576A,OK
29475557,1502782149,377A,OK
29475030,1502780404,377A,WRONG_ANSWER
29429982,1502617427,580C,OK
29360643,1502474099,650A,OK
29360587,1502473968,650A,WRONG_ANSWER
29359117,1502472101,115A,OK
29359076,1502472000,115A,WRONG_ANSWER
29358635,1502470959,732C,OK
29309931,1502295789,659C,OK
29309862,1502295573,659C,WRONG_ANSWER
29309808,1502295405,659C,WRONG_ANSWER
29309741,1502295153,659C,WRONG_ANSWER
29306392,1502283686,567C,OK
29306365,1502283587,567C,WRONG_ANSWER
29290171,1502211805,251A,OK
29288646,1502207060,135A,OK
29288627,1502206993,135A,WRONG_ANSWER
29288535,1502206648,372A,OK
29265939,1502112939,446A,OK
29265803,1502112555,446A,WRONG_ANSWER
29265780,1502112491,446A,WRONG_ANSWER
29265542,1502111781,446A,WRONG_ANSWER
29265499,1502111651,446A,WRONG_ANSWER
29264557,1502108821,446A,WRONG_ANSWER
29264532,1502108721,446A,WRONG_ANSWER
29158039,1501771280,492C,OK
29157994,1501771180,492C,WRONG_ANSWER
29124683,1501665528,348A,OK
29124627,1501665398,348A,WRONG_ANSWER
29107148,1501606112,348A,TIME_LIMIT_EXCEEDED
29105797,1501602623,348A,WRONG_ANSWER
27377790,1495879661,811B,OK
27373841,1495878424,811A,OK
26271924,1491845365,796B,TIME_LIMIT_EXCEEDED
26270596,1491844971,796B,WRONG_ANSWER
26269088,1491844532,796B,WRONG_ANSWER
26263197,1491843198,796A,OK
25039792,1488098917,779C,OK
25035958,1488097767,779B,OK
25033123,1488097045,779A,OK
24978310,1487937743,777B,WRONG_ANSWER
24965380,1487932340,777A,OK
24739412,1487341251,268C,OK
24738042,1487333593,478C,OK
24737409,1487331733,478C,WRONG_ANSWER
24737308,1487331405,478C,WRONG_ANSWER
24737167,1487331008,478C,WRONG_ANSWER
24736944,1487330227,455A,OK
24736919,1487330159,455A,WRONG_ANSWER
24736868,1487330004,455A,WRONG_ANSWER
24736608,1487328972,479C,OK
24736552,1487328756,479C,WRONG_ANSWER
24736255,1487327590,401C,OK
24736226,1487327468,401C,WRONG_ANSWER
24736204,1487327361,401C,WRONG_ANSWER
24736171,1487327252,401C,WRONG_ANSWER
24736131,1487327084,401C,WRONG_ANSWER
24735747,1487325684,466C,OK
24735592,1487325131,466C,TIME_LIMIT_EXCEEDED
24726065,1487276019,489C,WRONG_ANSWER
24726028,1487275865,489C,WRONG_ANSWER
24726000,1487275730,489C,WRONG_ANSWER
24725785,1487274848,489C,OK
24725761,1487274776,489C,WRONG_ANSWER
24725745,1487274696,489C,WRONG_ANSWER
24725726,1487274588,489C,WRONG_ANSWER
24725470,1487273609,489C,WRONG_ANSWER
24725394,1487273355,489C,WRONG_ANSWER
24724831,1487271303,492B,OK
24724666,1487270687,478B,OK
24722092,1487262267,467B,OK
24721998,1487261882,467B,OK
24721502,1487260302,339B,OK
24720945,1487258608,266B,OK
24720688,1487257813,266B,RUNTIME_ERROR
24701709,1487179322,486B,WRONG_ANSWER
24701533,1487178801,486B,WRONG_ANSWER
24700663,1487176081,263A,OK
