36841268,1522600970,952C,RUNTIME_ERROR
36830415,1522599752,952B,WRONG_ANSWER
36827061,1522599432,952B,WRONG_ANSWER
36825806,1522599317,952B,WRONG_ANSWER
36820680,1522598881,952B,RUNTIME_ERROR
36814900,1522598338,952A,OK
36785955,1522544473,784E,OK
36785928,1522544242,784E,WRONG_ANSWER
36785915,1522544199,784E,WRONG_ANSWER
36785895,1522544015,784E,WRONG_ANSWER
36785770,1522543152,784A,OK
36785762,1522543091,784A,RUNTIME_ERROR
36785758,1522543035,784A,RUNTIME_ERROR
17120721,1459553279,656B,OK
17120623,1459551971,656A,WRONG_ANSWER
16266224,1456080645,625A,OK
16266148,1456080378,625A,WRONG_ANSWER
16266110,1456080217,625A,COMPILATION_ERROR
16266094,1456080129,625A,WRONG_ANSWER
16266075,1456080069,625A,WRONG_ANSWER
16084921,1455729423,625A,WRONG_ANSWER
16083073,1455729324,625A,WRONG_ANSWER
14486990,1448507213,602C,OK
14486967,1448506956,602C,MEMORY_LIMIT_EXCEEDED
10722538,1429040262,536A,OK
10722501,1429040155,536A,WRONG_ANSWER
10715725,1429033331,536A,WRONG_ANSWER
10714977,1429032873,536A,WRONG_ANSWER
10714617,1429032673,536A,WRONG_ANSWER
10713247,1429031937,536A,TIME_LIMIT_EXCEEDED
10711909,1429031356,536A,TIME_LIMIT_EXCEEDED
10711676,1429031268,536A,TIME_LIMIT_EXCEEDED
10705912,1429027118,515A,WRONG_ANSWER
9899357,1424196253,515C,OK
9898285,1424195624,515D,OK
9892103,1424192821,515C,WRONG_ANSWER
9891559,1424192646,515C,WRONG_ANSWER
9888614,1424191857,515B,WRONG_ANSWER
9884974,1424191189,515A,WRONG_ANSWER
8974815,1417648176,279C,OK
8974801,1417647983,279C,WRONG_ANSWER
8974790,1417647707,279C,OK
8974773,1417647459,279C,WRONG_ANSWER
8974772,1417647413,279C,WRONG_ANSWER
8974761,1417647202,279C,WRONG_ANSWER
8974730,1417646783,279C,WRONG_ANSWER
8974725,1417646652,279C,WRONG_ANSWER
8974720,1417646602,279C,WRONG_ANSWER
8974717,1417646564,279C,WRONG_ANSWER
5186926,1385055919,295B,OK
5186916,1385055862,295B,WRONG_ANSWER
5186909,1385055804,295B,WRONG_ANSWER
5165736,1384891594,364B,WRONG_ANSWER
5165221,1384888379,364A,OK
5162289,1384881512,364A,WRONG_ANSWER
5160298,1384879825,364A,RUNTIME_ERROR
5160090,1384879694,364A,RUNTIME_ERROR
5097124,1384431567,82D,OK
5096443,1384426397,245H,OK
5095027,1384415433,208C,OK
5095001,1384415219,208C,WRONG_ANSWER
5094986,1384415085,208C,WRONG_ANSWER
5094967,1384414876,208C,WRONG_ANSWER
5094921,1384414407,208C,WRONG_ANSWER
5031783,1383937917,19B,OK
5031780,1383937849,19B,WRONG_ANSWER
5031766,1383937699,19B,WRONG_ANSWER
5031761,1383937647,19B,WRONG_ANSWER
5031760,1383937638,19B,WRONG_ANSWER
5031626,1383935599,19B,WRONG_ANSWER
5031572,1383934793,19B,WRONG_ANSWER
5031538,1383934245,19B,WRONG_ANSWER
5031532,1383934152,19B,WRONG_ANSWER
5031528,1383934122,19B,WRONG_ANSWER
4987154,1383579099,359D,OK
4987150,1383579072,359D,WRONG_ANSWER
4987057,1383578086,359D,WRONG_ANSWER
4987011,1383577705,359D,WRONG_ANSWER
4986965,1383577339,359D,WRONG_ANSWER
4986948,1383577221,359D,WRONG_ANSWER
4986902,1383576789,359D,WRONG_ANSWER
4986871,1383576568,359D,WRONG_ANSWER
4986301,1383571432,359D,TIME_LIMIT_EXCEEDED
4986064,1383569980,359D,TIME_LIMIT_EXCEEDED
4986058,1383569923,359D,TIME_LIMIT_EXCEEDED
4986047,1383569810,359D,WRONG_ANSWER
4986036,1383569699,359D,TIME_LIMIT_EXCEEDED
4985914,1383568623,359D,WRONG_ANSWER
4985868,1383568264,359D,WRONG_ANSWER
4985751,1383567269,359D,WRONG_ANSWER
4985714,1383567052,359D,WRONG_ANSWER
4985550,1383565956,359D,WRONG_ANSWER
4985226,1383563427,359C,OK
4984150,1383548886,359C,WRONG_ANSWER
4984144,1383548841,359C,WRONG_ANSWER
4982041,1383510276,359C,WRONG_ANSWER
4982037,1383510241,359C,WRONG_ANSWER
4982034,1383510172,359C,WRONG_ANSWER
4982031,1383510132,359C,WRONG_ANSWER
4982029,1383510102,359C,WRONG_ANSWER
4981991,1383509571,359C,WRONG_ANSWER
4981975,1383509419,359C,WRONG_ANSWER
4981937,1383508858,359C,WRONG_ANSWER
4981849,1383508072,359C,WRONG_ANSWER
4981760,1383507183,359C,WRONG_ANSWER
4981718,1383506816,359C,WRONG_ANSWER
4981716,1383506796,359C,WRONG_ANSWER
4981710,1383506715,359C,WRONG_ANSWER
4981699,1383506483,359C,WRONG_ANSWER
4981604,1383505322,359C,WRONG_ANSWER
4981596,1383505199,359C,WRONG_ANSWER
4981581,1383505039,359C,WRONG_ANSWER
4981552,1383504747,359C,WRONG_ANSWER
4981387,1383502986,359B,OK
4952036,1383319095,358B,OK
4951487,1383314128,358B,WRONG_ANSWER
4951476,1383314067,358B,WRONG_ANSWER
4951405,1383313473,358B,WRONG_ANSWER
4453796,1379093674,277C,WRONG_ANSWER
4453732,1379093449,277C,WRONG_ANSWER
4450903,1379064066,277C,WRONG_ANSWER
4450881,1379063627,277C,WRONG_ANSWER
4450876,1379063524,277C,WRONG_ANSWER
4450872,1379063486,277C,WRONG_ANSWER
4450851,1379063076,277C,WRONG_ANSWER
4450845,1379063012,277C,WRONG_ANSWER
4436586,1378748677,325C,MEMORY_LIMIT_EXCEEDED
4436578,1378748629,325C,WRONG_ANSWER
4436567,1378748500,325C,WRONG_ANSWER
4436552,1378748316,325C,WRONG_ANSWER
4436525,1378747893,325C,WRONG_ANSWER
4436523,1378747881,325C,WRONG_ANSWER
4431276,1378632006,325C,WRONG_ANSWER
4431253,1378631695,325C,WRONG_ANSWER
4431226,1378631268,325C,MEMORY_LIMIT_EXCEEDED
4431207,1378630759,325C,MEMORY_LIMIT_EXCEEDED
4431133,1378629344,325C,MEMORY_LIMIT_EXCEEDED
4431122,1378629033,325C,WRONG_ANSWER
4430916,1378625654,325C,WRONG_ANSWER
4430912,1378625567,325C,WRONG_ANSWER
4430907,1378625500,325C,WRONG_ANSWER
3559488,1366274715,296D,OK
3559460,1366274098,296D,WRONG_ANSWER
3559447,1366273951,296D,WRONG_ANSWER
3525950,1365855780,246E,OK
3525933,1365855643,246E,TIME_LIMIT_EXCEEDED
3525637,1365853727,246E,TIME_LIMIT_EXCEEDED
3525625,1365853653,246E,TIME_LIMIT_EXCEEDED
3525590,1365853448,246E,TIME_LIMIT_EXCEEDED
3525523,1365853013,246E,WRONG_ANSWER
3525462,1365852610,246E,WRONG_ANSWER
3500907,1365623740,246E,MEMORY_LIMIT_EXCEEDED
3500900,1365623601,246E,MEMORY_LIMIT_EXCEEDED
3500881,1365622953,246E,WRONG_ANSWER
3497893,1365538118,254E,OK
3497889,1365537998,254E,TIME_LIMIT_EXCEEDED
3497863,1365536761,254E,WRONG_ANSWER
3497857,1365536339,254E,RUNTIME_ERROR
3497854,1365536236,254E,RUNTIME_ERROR
3497853,1365536137,254E,WRONG_ANSWER
3490290,1365358962,294B,OK
3490264,1365358770,294B,WRONG_ANSWER
3490254,1365358648,294B,WRONG_ANSWER
3490241,1365358563,294B,WRONG_ANSWER
3490216,1365358436,294B,WRONG_ANSWER
3490205,1365358394,294B,WRONG_ANSWER
3490123,1365357916,294B,WRONG_ANSWER
3487487,1365352883,294C,OK
3486281,1365351622,294B,WRONG_ANSWER
3486220,1365351568,294B,WRONG_ANSWER
3485768,1365351160,294B,WRONG_ANSWER
3484861,1365350438,294B,WRONG_ANSWER
3483681,1365349563,294A,OK
3464421,1364925188,288B,OK
3464334,1364924952,288B,RUNTIME_ERROR
3460867,1364920960,288C,OK
3460324,1364920579,288C,CHALLENGED
3457819,1364919042,288B,RUNTIME_ERROR
3453683,1364916982,288A,OK
3441522,1364834167,290E,WRONG_ANSWER
3439514,1364833387,290A,OK
3439291,1364833298,290B,OK
3437934,1364832727,290A,WRONG_ANSWER
3430460,1364814008,171A,OK
3430169,1364807873,171F,OK
3430040,1364805436,171D,OK
3430038,1364805385,171D,WRONG_ANSWER
3422267,1364635513,203D,OK
3408380,1364304217,279D,WRONG_ANSWER
3408067,1364299866,279E,OK
3402682,1364196913,118D,OK
3402675,1364196862,118D,WRONG_ANSWER
3402641,1364195833,118D,WRONG_ANSWER
3402637,1364195772,118D,WRONG_ANSWER
3401515,1364151756,282A,OK
3401502,1364151434,282E,OK
3401365,1364147963,282E,WRONG_ANSWER
3401364,1364147929,282E,WRONG_ANSWER
3401259,1364145574,282E,WRONG_ANSWER
3401250,1364145429,282E,WRONG_ANSWER
3397072,1364070480,22D,OK
3390214,1364030673,287C,OK
3386083,1364026738,287B,OK
3384665,1364025955,287A,OK
3382474,1363982288,272D,OK
3382468,1363982225,272D,WRONG_ANSWER
3380637,1363957559,272D,WRONG_ANSWER
3380601,1363957297,272D,WRONG_ANSWER
3380579,1363957099,272D,WRONG_ANSWER
3380552,1363956896,272D,WRONG_ANSWER
3380535,1363956730,272D,WRONG_ANSWER
3380500,1363956377,272D,WRONG_ANSWER
3380483,1363956265,272D,WRONG_ANSWER
3380309,1363954504,22E,OK
3380264,1363954143,22E,TIME_LIMIT_EXCEEDED
3380244,1363953960,22E,WRONG_ANSWER
3380194,1363953582,22E,WRONG_ANSWER
3380185,1363953524,22E,WRONG_ANSWER
3380156,1363953128,22E,WRONG_ANSWER
3380141,1363952958,22E,WRONG_ANSWER
3380135,1363952914,22E,WRONG_ANSWER
3380133,1363952882,22E,WRONG_ANSWER
3379411,1363946391,22E,WRONG_ANSWER
3376215,1363889719,285D,OK
3369014,1363880976,285B,OK
3367504,1363880436,285C,OK
3366426,1363880083,285A,OK
3365233,1363870497,22E,WRONG_ANSWER
3364973,1363868061,22E,WRONG_ANSWER
3363985,1363854679,92D,OK
3361345,1363792885,55C,OK
3361101,1363788755,55C,WRONG_ANSWER
3361061,1363787897,55C,WRONG_ANSWER
3360897,1363785284,189D,OK
3360883,1363784992,187B,WRONG_ANSWER
3359553,1363761705,15C,OK
3359546,1363761597,15C,WRONG_ANSWER
3356470,1363694860,78C,OK
3349843,1363598180,283B,OK
3349829,1363598016,283B,WRONG_ANSWER
3349827,1363597988,283B,WRONG_ANSWER
3349813,1363597823,283B,TIME_LIMIT_EXCEEDED
3339925,1363538930,283A,OK
3337677,1363537594,283A,CHALLENGED
3324854,1363426117,272C,OK
3319695,1363336136,272B,OK
3319667,1363335791,272B,WRONG_ANSWER
3319661,1363335685,272B,WRONG_ANSWER
3319603,1363334547,272A,OK
3319598,1363334477,272A,WRONG_ANSWER
3319517,1363333083,270D,OK
3319492,1363332793,270D,OK
3319489,1363332750,270D,WRONG_ANSWER
3319346,1363331039,270D,WRONG_ANSWER
3318138,1363288948,73C,OK
3318114,1363288730,73C,WRONG_ANSWER
3318099,1363288520,73C,WRONG_ANSWER
3318091,1363288392,73C,WRONG_ANSWER
3318077,1363288116,73C,WRONG_ANSWER
3316115,1363261357,282B,OK
3314558,1363245723,282D,OK
3314547,1363245584,282D,WRONG_ANSWER
3314533,1363245431,282D,WRONG_ANSWER
3314441,1363244590,282D,WRONG_ANSWER
3311527,1363203547,282E,WRONG_ANSWER
3309861,1363195253,282E,WRONG_ANSWER
3302211,1363189899,282C,OK
3297562,1363162956,281D,OK
3294833,1363094959,281C,OK
3294730,1363093880,281C,WRONG_ANSWER
3276258,1362930296,281B,OK
3274345,1362929494,281A,OK
3266095,1362750146,272D,WRONG_ANSWER
3266058,1362749715,272D,WRONG_ANSWER
3262219,1362658950,268E,OK
3262209,1362658807,268E,WRONG_ANSWER
3261406,1362642796,268C,OK
3261331,1362641464,268C,WRONG_ANSWER
3261325,1362641351,268C,WRONG_ANSWER
3261274,1362640105,268B,OK
3261243,1362639577,268A,OK
3260112,1362598668,275D,OK
3260100,1362598394,275D,WRONG_ANSWER
3260065,1362597805,275D,WRONG_ANSWER
3260062,1362597772,275D,WRONG_ANSWER
3254758,1362490578,236C,OK
3254739,1362490432,236C,WRONG_ANSWER
3250585,1362424658,279C,OK
3250548,1362424293,279C,WRONG_ANSWER
3250519,1362424130,279C,WRONG_ANSWER
3250511,1362424040,279C,WRONG_ANSWER
3250473,1362423753,279C,WRONG_ANSWER
3250455,1362423606,279C,WRONG_ANSWER
3250420,1362423311,279C,WRONG_ANSWER
3250384,1362422905,279C,WRONG_ANSWER
3248793,1362417980,279E,WRONG_ANSWER
3246901,1362416497,279E,WRONG_ANSWER
3244627,1362414823,279C,WRONG_ANSWER
3242575,1362413525,279A,OK
3238998,1362411576,279B,OK
3229019,1362214180,237E,OK
3223061,1362122957,278C,OK
3222946,1362121736,278C,WRONG_ANSWER
3222858,1362120641,278B,OK
3222796,1362119764,278A,OK
3204005,1361992010,129E,OK
3204003,1361991982,129E,WRONG_ANSWER
3203988,1361991753,129E,WRONG_ANSWER
3203976,1361991671,129E,WRONG_ANSWER
3203823,1361988558,233D,OK
3203745,1361986930,233D,WRONG_ANSWER
3203722,1361986587,233D,WRONG_ANSWER
3202776,1361971583,233D,WRONG_ANSWER
3202721,1361970969,233D,WRONG_ANSWER
3202670,1361970415,233D,WRONG_ANSWER
3202667,1361970379,233D,WRONG_ANSWER
3202141,1361961098,233D,WRONG_ANSWER
3200006,1361901383,276E,OK
3197846,1361867108,276E,OK
3194973,1361799797,276D,OK
3194967,1361799737,276D,WRONG_ANSWER
3190081,1361726874,276D,WRONG_ANSWER
3185723,1361722717,276C,OK
3185509,1361722525,276C,WRONG_ANSWER
3185234,1361722316,276C,WRONG_ANSWER
3182118,1361720452,276B,OK
3181097,1361720099,276A,OK
3175732,1361614316,270E,OK
3175684,1361613590,270E,OK
3175664,1361613340,270E,WRONG_ANSWER
3175660,1361613305,270E,COMPILATION_ERROR
3175591,1361612202,270E,OK
3174133,1361566066,208E,MEMORY_LIMIT_EXCEEDED
3161656,1361381316,275D,WRONG_ANSWER
3158977,1361379341,275C,OK
3158266,1361378804,275C,WRONG_ANSWER
3157822,1361378468,275C,WRONG_ANSWER
3157543,1361378274,275C,WRONG_ANSWER
3155833,1361377126,275C,WRONG_ANSWER
3155163,1361376655,275C,WRONG_ANSWER
3154805,1361376436,275C,WRONG_ANSWER
3154702,1361376371,275C,WRONG_ANSWER
3153696,1361375779,275B,OK
3153554,1361375689,275B,WRONG_ANSWER
3151093,1361374495,275A,OK
3068476,1359919026,30C,OK
3068465,1359918878,30C,WRONG_ANSWER
3068458,1359918812,30C,WRONG_ANSWER
3068363,1359917252,30C,TIME_LIMIT_EXCEEDED
3068356,1359917155,30C,TIME_LIMIT_EXCEEDED
3068345,1359917051,30C,MEMORY_LIMIT_EXCEEDED
3068295,1359916471,30C,TIME_LIMIT_EXCEEDED
3068269,1359916213,30C,TIME_LIMIT_EXCEEDED
2990966,1358873714,266D,WRONG_ANSWER
2989448,1358871385,266D,WRONG_ANSWER
2986283,1358869187,266B,OK
2985163,1358868866,266A,OK
2973960,1358704467,265C,OK
2973468,1358702616,265C,WRONG_ANSWER
2973458,1358702600,265C,WRONG_ANSWER
2972844,1358693982,265D,WRONG_ANSWER
2972621,1358693839,265D,WRONG_ANSWER
2967050,1358688682,265C,CHALLENGED
2965268,1358687700,265B,OK
2963733,1358687130,265A,OK
2959258,1358590858,117C,OK
2959154,1358588890,117C,TIME_LIMIT_EXCEEDED
2959129,1358588310,117C,TIME_LIMIT_EXCEEDED
2959047,1358586583,117C,TIME_LIMIT_EXCEEDED
2959002,1358585881,117C,TIME_LIMIT_EXCEEDED
2959000,1358585868,117C,WRONG_ANSWER
2956487,1358514428,117C,TIME_LIMIT_EXCEEDED
2956483,1358514407,117C,RUNTIME_ERROR
2956438,1358513683,117C,TIME_LIMIT_EXCEEDED
2956413,1358513342,117C,TIME_LIMIT_EXCEEDED
2956278,1358511130,116C,OK
2951747,1358412146,263D,OK
2951694,1358410983,263D,WRONG_ANSWER
2949760,1358410717,263D,WRONG_ANSWER
2949724,1358410170,263D,WRONG_ANSWER
2946375,1358371374,263D,WRONG_ANSWER
2946331,1358370315,263B,OK
2946308,1358369930,263A,OK
2919266,1358096325,262C,OK
2917470,1358094370,262B,OK
2915666,1358092987,262B,WRONG_ANSWER
2915492,1358092872,262B,WRONG_ANSWER
2914889,1358092517,262B,WRONG_ANSWER
2912321,1358091395,262A,OK
2901703,1357811301,260B,OK
2901700,1357811238,260B,WRONG_ANSWER
2901697,1357811197,260B,WRONG_ANSWER
2901684,1357811005,260B,WRONG_ANSWER
2898864,1357725539,257D,OK
2894060,1357672587,257B,OK
2892053,1357665474,257B,WRONG_ANSWER
2889464,1357662711,257C,OK
2889435,1357662685,257C,TIME_LIMIT_EXCEEDED
2886823,1357660276,257B,WRONG_ANSWER
2886057,1357659701,257A,OK
2858355,1356881664,260C,OK
2858352,1356881589,260C,WRONG_ANSWER
2858347,1356881508,260C,WRONG_ANSWER
2858342,1356881430,260C,WRONG_ANSWER
2858335,1356881372,260C,TIME_LIMIT_EXCEEDED
2822421,1356354927,189C,OK
2822348,1356353738,189B,OK
2822308,1356353210,189B,WRONG_ANSWER
2821819,1356343391,246C,OK
2821810,1356343194,246C,WRONG_ANSWER
2821809,1356343161,246C,COMPILATION_ERROR
2818759,1356258560,248C,WRONG_ANSWER
2818752,1356258460,248C,WRONG_ANSWER
2818745,1356258318,248C,WRONG_ANSWER
2818733,1356258079,248C,WRONG_ANSWER
2818731,1356258055,248C,WRONG_ANSWER
2818729,1356257962,248C,WRONG_ANSWER
2818682,1356256578,248C,WRONG_ANSWER
2818640,1356255527,248C,WRONG_ANSWER
2818466,1356252394,248B,OK
2818456,1356252210,248B,WRONG_ANSWER
2818397,1356251382,248A,OK
2810002,1356191506,259C,OK
2809867,1356191430,259C,SKIPPED
2809311,1356191108,259B,OK
2807892,1356190517,259A,OK
2791873,1355853368,255C,OK
2791863,1355853279,255C,OK
2788720,1355772552,255B,OK
2788700,1355771915,255A,OK
2750755,1355223846,254C,OK
2748819,1355166844,254C,WRONG_ANSWER
2748787,1355166049,254C,WRONG_ANSWER
2748782,1355165988,254C,WRONG_ANSWER
2748776,1355165888,254C,WRONG_ANSWER
2748770,1355165735,254C,WRONG_ANSWER
2748766,1355165653,254C,WRONG_ANSWER
2748760,1355165560,254C,WRONG_ANSWER
2748586,1355162249,254B,OK
2748581,1355162125,254B,WRONG_ANSWER
2748567,1355161754,254B,WRONG_ANSWER
2748538,1355161318,254B,WRONG_ANSWER
2748502,1355160580,254A,OK
2748500,1355160516,254A,WRONG_ANSWER
2747513,1355145709,253D,OK
2742458,1355060329,253C,OK
2742216,1355059378,253B,OK
2741921,1355058505,253B,TIME_LIMIT_EXCEEDED
2741904,1355058477,253A,OK
2741879,1355058422,253A,WRONG_ANSWER
2741823,1355057711,253B,WRONG_ANSWER
2741792,1355056778,253A,WRONG_ANSWER
2741739,1355056475,253A,WRONG_ANSWER
2716030,1354888088,252B,OK
2716010,1354887756,252B,WRONG_ANSWER
2715944,1354886836,252C,OK
2715935,1354886794,252C,WRONG_ANSWER
2715923,1354886728,252C,OK
2708092,1354813215,252C,WRONG_ANSWER
2707430,1354812623,252C,WRONG_ANSWER
2706139,1354811533,252C,WRONG_ANSWER
2705725,1354811201,252C,WRONG_ANSWER
2704127,1354810070,252C,WRONG_ANSWER
2703909,1354809903,252C,WRONG_ANSWER
2702244,1354808644,252B,WRONG_ANSWER
2701234,1354808092,252A,OK
2624882,1353567831,246C,WRONG_ANSWER
2624877,1353567772,246C,TIME_LIMIT_EXCEEDED
2624868,1353567645,246C,TIME_LIMIT_EXCEEDED
2624861,1353567612,246C,WRONG_ANSWER
2624856,1353567568,246C,WRONG_ANSWER
2624761,1353566496,246C,TIME_LIMIT_EXCEEDED
2620872,1353518886,246D,OK
2618537,1353516754,246D,CHALLENGED
2618405,1353516621,246D,WRONG_ANSWER
2617288,1353515677,246D,WRONG_ANSWER
2617174,1353515584,246D,WRONG_ANSWER
2614963,1353513894,246C,TIME_LIMIT_EXCEEDED
2612520,1353512534,246B,OK
2612443,1353512487,246B,WRONG_ANSWER
2611262,1353512062,246A,OK
2601285,1353350918,245E,OK
2601269,1353350847,245E,WRONG_ANSWER
2600711,1353348158,245E,WRONG_ANSWER
2600658,1353347960,245E,WRONG_ANSWER
2600534,1353347668,245E,WRONG_ANSWER
2600346,1353347310,245B,OK
2600084,1353346797,245B,WRONG_ANSWER
2599566,1353346554,245B,WRONG_ANSWER
2599487,1353346506,245B,WRONG_ANSWER
2599233,1353346340,245B,WRONG_ANSWER
2598650,1353345899,245A,OK
2598508,1353345788,245A,WRONG_ANSWER
2579566,1353160282,244C,WRONG_ANSWER
2579555,1353159974,244C,WRONG_ANSWER
2579549,1353159875,244C,WRONG_ANSWER
2579542,1353159710,244C,RUNTIME_ERROR
2579523,1353159397,244C,WRONG_ANSWER
2579480,1353158834,244C,WRONG_ANSWER
2579140,1353154893,244B,OK
2579103,1353154405,244B,WRONG_ANSWER
2579085,1353154084,244B,WRONG_ANSWER
2578986,1353153000,244A,OK
2543823,1352725236,242C,OK
2542842,1352709856,242D,OK
2542837,1352709725,242D,WRONG_ANSWER
2542830,1352709620,242D,WRONG_ANSWER
2542718,1352707471,242B,OK
2542699,1352706980,242A,OK
2508076,1352058094,239B,OK
2508068,1352058030,239B,WRONG_ANSWER
2508065,1352057996,239B,COMPILATION_ERROR
2508056,1352057945,239B,WRONG_ANSWER
2508018,1352057552,239B,WRONG_ANSWER
2508010,1352057413,239B,WRONG_ANSWER
2507928,1352057037,239B,WRONG_ANSWER
2506740,1352056745,239B,WRONG_ANSWER
2506727,1352056648,239B,COMPILATION_ERROR
2506610,1352055964,239B,WRONG_ANSWER
2503060,1352049702,239B,WRONG_ANSWER
2501367,1352047383,239A,OK
2498391,1352045194,239A,SKIPPED
2495714,1351964929,237C,OK
2495710,1351964854,237C,WRONG_ANSWER
2495708,1351964817,237C,WRONG_ANSWER
2494982,1351951280,237B,OK
2494965,1351951032,237B,RUNTIME_ERROR
2494959,1351950895,237B,WRONG_ANSWER
2486141,1351793008,241A,OK
2485970,1351792772,241A,WRONG_ANSWER
2485961,1351792763,241A,WRONG_ANSWER
2485025,1351791451,241A,WRONG_ANSWER
2485000,1351791426,241A,WRONG_ANSWER
2484745,1351791048,241A,WRONG_ANSWER
2471902,1351622578,236D,OK
2470453,1351598869,236D,TIME_LIMIT_EXCEEDED
2470389,1351598217,236D,TIME_LIMIT_EXCEEDED
2470374,1351598099,236D,TIME_LIMIT_EXCEEDED
2469718,1351586006,236C,OK
2469702,1351585741,236C,WRONG_ANSWER
2469694,1351585581,236C,WRONG_ANSWER
2469669,1351585202,236C,WRONG_ANSWER
2469651,1351584916,236C,WRONG_ANSWER
2469612,1351583820,236B,OK
2469480,1351579307,236A,OK
2386457,1350636650,216D,OK
2386450,1350636569,216D,OK
2384843,1350579749,216B,OK
2383515,1350563185,225D,OK
2383496,1350562977,225D,MEMORY_LIMIT_EXCEEDED
2383476,1350562771,225D,MEMORY_LIMIT_EXCEEDED
2383442,1350562443,225D,WRONG_ANSWER
2383167,1350558353,227B,OK
2383147,1350558176,227B,WRONG_ANSWER
2382884,1350551884,225D,WRONG_ANSWER
2382712,1350549224,225D,WRONG_ANSWER
2382709,1350549210,225D,RUNTIME_ERROR
2382640,1350548270,225D,WRONG_ANSWER
2379423,1350478650,234H,OK
2379396,1350478371,234H,WRONG_ANSWER
2379388,1350478272,234H,WRONG_ANSWER
2379356,1350478035,234H,WRONG_ANSWER
2379336,1350477890,234H,WRONG_ANSWER
2379319,1350477785,234H,WRONG_ANSWER
2379302,1350477639,234H,RUNTIME_ERROR
2379051,1350475616,234H,WRONG_ANSWER
2379031,1350475443,234H,WRONG_ANSWER
2379023,1350475381,234H,WRONG_ANSWER
2379020,1350475335,234H,WRONG_ANSWER
2378981,1350474930,234H,WRONG_ANSWER
2378896,1350474048,234H,WRONG_ANSWER
2378850,1350473621,234H,WRONG_ANSWER
2377859,1350461740,234G,OK
2377590,1350458384,234F,OK
2377578,1350458261,234F,WRONG_ANSWER
2371793,1350381728,234E,OK
2370050,1350378261,234D,OK
2368325,1350376079,234D,WRONG_ANSWER
2367868,1350375551,234D,WRONG_ANSWER
2367164,1350374807,234D,WRONG_ANSWER
2364704,1350372757,234C,OK
2364648,1350372718,234C,COMPILATION_ERROR
2364612,1350372689,234C,WRONG_ANSWER
2363577,1350371965,234B,OK
2362873,1350371363,234A,OK
2360852,1350304445,180E,OK
2360848,1350304387,180E,OK
2360745,1350300453,180E,WRONG_ANSWER
2360735,1350300205,180E,WRONG_ANSWER
2360622,1350297515,180E,TIME_LIMIT_EXCEEDED
2360325,1350289546,180E,TIME_LIMIT_EXCEEDED
2360310,1350289306,180E,TIME_LIMIT_EXCEEDED
2360287,1350288929,180E,WRONG_ANSWER
2360080,1350284151,180F,OK
2360009,1350282304,180C,OK
2359287,1350237043,197A,OK
2359212,1350235156,197C,OK
2359210,1350235139,197C,RUNTIME_ERROR
2359204,1350234954,197C,WRONG_ANSWER
2359140,1350232801,197B,OK
2359133,1350232575,197B,WRONG_ANSWER
2359104,1350231934,197A,WRONG_ANSWER
2358598,1350220705,200C,OK
2358396,1350216785,200C,WRONG_ANSWER
2357871,1350202465,205C,OK
2357682,1350200146,205C,WRONG_ANSWER
2355029,1350128768,205D,OK
2355026,1350128712,205D,WRONG_ANSWER
2354973,1350127626,205B,OK
2354544,1350120233,215D,OK
2354542,1350120148,215D,WRONG_ANSWER
2354539,1350120103,215D,WRONG_ANSWER
2354536,1350120040,215D,WRONG_ANSWER
2354526,1350119889,215D,RUNTIME_ERROR
2354368,1350117532,215B,OK
2354350,1350117098,215B,WRONG_ANSWER
2354152,1350112165,215A,OK
2353269,1350071046,216B,WRONG_ANSWER
2353255,1350070789,205A,OK
2352996,1350065883,218C,OK
2351648,1350046427,218C,WRONG_ANSWER
2351333,1350043290,218C,WRONG_ANSWER
2351269,1350042716,218C,WRONG_ANSWER
2351185,1350041940,218B,OK
2351096,1350041262,218A,OK
2351087,1350041210,218A,WRONG_ANSWER
2351066,1350041030,218A,WRONG_ANSWER
2351040,1350040712,218A,WRONG_ANSWER
2350011,1350023655,233C,OK
2350007,1350023625,233C,WRONG_ANSWER
2341913,1349970965,233B,OK
2339716,1349969598,233A,OK
2338651,1349954332,224C,WRONG_ANSWER
2338643,1349954179,224C,WRONG_ANSWER
2335278,1349868465,222B,OK
2335267,1349868206,222B,WRONG_ANSWER
2335230,1349867644,222B,TIME_LIMIT_EXCEEDED
2335222,1349867494,222B,WRONG_ANSWER
2335211,1349867231,222B,TIME_LIMIT_EXCEEDED
2334039,1349861686,222A,OK
2333636,1349854341,221D,OK
2327269,1349769383,219D,OK
2327252,1349768927,219D,TIME_LIMIT_EXCEEDED
2327246,1349768827,219D,WRONG_ANSWER
2327242,1349768775,219D,WRONG_ANSWER
2327239,1349768730,219D,WRONG_ANSWER
2327234,1349768655,219D,TIME_LIMIT_EXCEEDED
2327023,1349764168,219B,OK
2327021,1349764107,219B,WRONG_ANSWER
2327011,1349763966,219B,WRONG_ANSWER
2323079,1349699987,221C,OK
2323045,1349699467,221B,OK
2322076,1349697328,221B,TIME_LIMIT_EXCEEDED
2322045,1349697004,221B,WRONG_ANSWER
2321111,1349678656,231D,OK
2321037,1349677683,231C,OK
2321030,1349677504,231C,WRONG_ANSWER
2320873,1349674068,231C,WRONG_ANSWER
2320868,1349673951,231B,OK
2317856,1349629764,231C,WRONG_ANSWER
2312597,1349623998,231A,OK
2311015,1349609990,129C,OK
2310979,1349609461,129C,RUNTIME_ERROR
2310523,1349601501,230D,OK
2310522,1349601477,230D,TIME_LIMIT_EXCEEDED
2310447,1349600212,230D,WRONG_ANSWER
2310415,1349599657,230D,WRONG_ANSWER
2310388,1349599301,230D,WRONG_ANSWER
2309903,1349590938,214B,OK
2309900,1349590821,214B,WRONG_ANSWER
2309897,1349590701,214B,WRONG_ANSWER
2309893,1349590517,214B,WRONG_ANSWER
2309890,1349590432,214B,WRONG_ANSWER
2309888,1349590297,214B,WRONG_ANSWER
2309885,1349590185,214B,WRONG_ANSWER
2309883,1349590161,214B,TIME_LIMIT_EXCEEDED
2304974,1349506245,208B,OK
2304960,1349505914,208B,WRONG_ANSWER
2304938,1349505564,208B,WRONG_ANSWER
2304931,1349505393,208B,WRONG_ANSWER
2303341,1349459547,208B,TIME_LIMIT_EXCEEDED
2303121,1349454972,219C,OK
2303110,1349454785,219C,WRONG_ANSWER
2303063,1349454076,219C,WRONG_ANSWER
2303047,1349453869,219C,WRONG_ANSWER
2302373,1349441093,222D,WRONG_ANSWER
2301286,1349417809,186C,OK
2301170,1349414321,186C,WRONG_ANSWER
2290058,1349160585,230C,OK
2290038,1349160388,230C,WRONG_ANSWER
2289525,1349154520,230C,TIME_LIMIT_EXCEEDED
2280282,1349108428,230C,TIME_LIMIT_EXCEEDED
2280240,1349108408,230C,WRONG_ANSWER
2277795,1349107184,230B,OK
2277245,1349106949,230B,WRONG_ANSWER
2276992,1349106853,230B,WRONG_ANSWER
2276561,1349106657,230B,WRONG_ANSWER
2276402,1349106598,230B,WRONG_ANSWER
2275249,1349106185,230A,OK
2273091,1349096129,168C,OK
2273077,1349095837,168C,WRONG_ANSWER
2273074,1349095813,168C,WRONG_ANSWER
2270657,1348995404,224B,OK
2270653,1348995287,224B,WRONG_ANSWER
2270650,1348995220,224B,WRONG_ANSWER
2270517,1348990726,225C,OK
2270510,1348990613,225C,WRONG_ANSWER
2270508,1348990555,225C,WRONG_ANSWER
2270504,1348990502,225C,WRONG_ANSWER
2268452,1348905117,168B,OK
2268442,1348904861,168B,TIME_LIMIT_EXCEEDED
2268438,1348904841,168B,WRONG_ANSWER
2268430,1348904716,168B,WRONG_ANSWER
2268429,1348904692,168B,WRONG_ANSWER
2268419,1348904499,168B,WRONG_ANSWER
2268415,1348904439,168B,WRONG_ANSWER
2268411,1348904358,168B,WRONG_ANSWER
2268410,1348904319,168B,WRONG_ANSWER
2268407,1348904180,168B,WRONG_ANSWER
2268400,1348904027,168B,WRONG_ANSWER
2268396,1348903972,168B,WRONG_ANSWER
2268394,1348903940,168B,IDLENESS_LIMIT_EXCEEDED
2268380,1348903578,168B,IDLENESS_LIMIT_EXCEEDED
2265855,1348830981,168A,OK
2265433,1348821375,228E,OK
2259224,1348761667,228B,OK
2256867,1348760070,228A,OK
2255833,1348748818,227A,OK
2255816,1348748534,227A,RUNTIME_ERROR
2255751,1348747354,227A,WRONG_ANSWER
2255748,1348747315,227A,WRONG_ANSWER
2255726,1348747029,227A,WRONG_ANSWER
2255725,1348746993,227A,IDLENESS_LIMIT_EXCEEDED
2255633,1348745039,227A,WRONG_ANSWER
2255616,1348744763,227A,WRONG_ANSWER
2255564,1348743500,227A,WRONG_ANSWER
2255554,1348743348,227A,IDLENESS_LIMIT_EXCEEDED
2203235,1347885380,224A,OK
2203223,1347885227,224A,WRONG_ANSWER
2203207,1347885065,224A,WRONG_ANSWER
1894426,1342074994,205D,OK
1894294,1342073253,205B,OK
1890689,1342027011,205B,WRONG_ANSWER
1887756,1342023579,205B,WRONG_ANSWER
1887687,1342023515,205B,WRONG_ANSWER
1887300,1342023143,205B,WRONG_ANSWER
1887151,1342023006,205B,WRONG_ANSWER
1886702,1342022635,205B,WRONG_ANSWER
1886578,1342022554,205B,WRONG_ANSWER
1886436,1342022439,205B,WRONG_ANSWER
1885616,1342021879,205A,OK
1885505,1342021808,205A,WRONG_ANSWER
1863146,1341388026,166E,OK
1863138,1341387887,166E,WRONG_ANSWER
1863014,1341385863,166E,MEMORY_LIMIT_EXCEEDED
1863010,1341385821,166E,MEMORY_LIMIT_EXCEEDED
1862826,1341383309,203B,OK
1862802,1341382968,203B,WRONG_ANSWER
1860023,1341336220,203C,OK
1859689,1341335691,203B,WRONG_ANSWER
1858867,1341334421,203B,WRONG_ANSWER
1858822,1341334361,203B,WRONG_ANSWER
1858789,1341334308,203B,WRONG_ANSWER
1858296,1341333702,203B,WRONG_ANSWER
1858257,1341333666,203B,RUNTIME_ERROR
1857835,1341333182,203C,SKIPPED
1857746,1341333085,203C,WRONG_ANSWER
1857088,1341332445,203A,OK
1853892,1341330424,203A,WRONG_ANSWER
1852899,1341330029,203A,WRONG_ANSWER
1850776,1341298485,166E,MEMORY_LIMIT_EXCEEDED
1850769,1341298061,166E,WRONG_ANSWER
1850762,1341297723,166E,MEMORY_LIMIT_EXCEEDED
1850742,1341296625,199C,OK
1848680,1341222247,199C,WRONG_ANSWER
1848674,1341221957,199C,WRONG_ANSWER
1848672,1341221846,199C,WRONG_ANSWER
1848625,1341219337,202C,OK
1848621,1341219196,202C,WRONG_ANSWER
1848602,1341218488,202C,WRONG_ANSWER
1848480,1341212622,202A,OK
1768979,1339060281,189B,WRONG_ANSWER
1768792,1339054958,190C,OK
1768692,1339052450,190C,WRONG_ANSWER
1768683,1339052336,190C,WRONG_ANSWER
1768679,1339052241,190C,WRONG_ANSWER
1767585,1338986780,190C,TIME_LIMIT_EXCEEDED
1767584,1338986762,190C,COMPILATION_ERROR
1767539,1338984754,190C,TIME_LIMIT_EXCEEDED
1767467,1338982397,190C,WRONG_ANSWER
1767466,1338982313,190C,TIME_LIMIT_EXCEEDED
1767255,1338974250,190B,OK
1767215,1338973424,190B,WRONG_ANSWER
1767187,1338972539,190B,WRONG_ANSWER
1767186,1338972508,190B,WRONG_ANSWER
1767183,1338972391,190B,WRONG_ANSWER
1767162,1338971615,190C,TIME_LIMIT_EXCEEDED
1767090,1338968519,190C,TIME_LIMIT_EXCEEDED
1767088,1338968481,190C,RUNTIME_ERROR
1767058,1338967592,190C,WRONG_ANSWER
1767051,1338967354,190C,WRONG_ANSWER
1765918,1338900792,190B,WRONG_ANSWER
1765895,1338900035,190B,WRONG_ANSWER
1765679,1338895009,192B,OK
1765500,1338887751,192C,OK
1765493,1338887547,192C,WRONG_ANSWER
1764143,1338818074,194C,OK
1764136,1338817994,194C,WRONG_ANSWER
1763633,1338807936,194C,WRONG_ANSWER
1763630,1338807892,194C,WRONG_ANSWER
1763627,1338807847,194C,WRONG_ANSWER
1763326,1338800888,194B,OK
1763057,1338794298,194B,TIME_LIMIT_EXCEEDED
1763027,1338793365,194A,OK
1274562,1330853165,124A,OK
1274511,1330853051,124A,WRONG_ANSWER
1274471,1330852962,118A,OK
1253757,1330598308,157B,OK
1253750,1330598102,157B,WRONG_ANSWER
1253697,1330596888,157B,WRONG_ANSWER
1253691,1330596773,157B,WRONG_ANSWER
1253678,1330596405,157A,OK
1253675,1330596308,157A,WRONG_ANSWER
1216451,1329923658,153A,WRONG_ANSWER
1205309,1329732627,149B,WRONG_ANSWER
1205304,1329732520,149B,WRONG_ANSWER
1205292,1329731751,149B,WRONG_ANSWER
1205267,1329729318,149B,WRONG_ANSWER
1204225,1329661649,149A,OK
1204222,1329661591,149A,WRONG_ANSWER
1204220,1329661564,149A,COMPILATION_ERROR
1204219,1329661504,149A,WRONG_ANSWER
1204217,1329661456,149A,COMPILATION_ERROR
1204215,1329661366,149A,WRONG_ANSWER
1204212,1329661334,149A,COMPILATION_ERROR
1204204,1329661172,149A,WRONG_ANSWER
1203995,1329656221,151B,OK
1203990,1329656059,151B,WRONG_ANSWER
1203979,1329655873,151B,WRONG_ANSWER
1203975,1329655811,151B,WRONG_ANSWER
1203971,1329655732,151B,WRONG_ANSWER
1203965,1329655623,151B,WRONG_ANSWER
1203962,1329655526,151B,WRONG_ANSWER
1203958,1329655486,151B,WRONG_ANSWER
1203956,1329655395,151B,WRONG_ANSWER
1203952,1329655314,151B,WRONG_ANSWER
1203940,1329655149,151B,WRONG_ANSWER
1203903,1329654075,151B,WRONG_ANSWER
1203871,1329653043,151B,WRONG_ANSWER
1203655,1329644638,151C,OK
1203654,1329644594,151C,WRONG_ANSWER
1203651,1329644492,151C,WRONG_ANSWER
1203643,1329644394,151C,WRONG_ANSWER
1203503,1329641662,151C,WRONG_ANSWER
1203488,1329641214,151C,WRONG_ANSWER
1203412,1329639798,151A,OK
1160718,1328857287,148A,OK
1160715,1328857113,148A,RUNTIME_ERROR
1160713,1328857078,148A,RUNTIME_ERROR
1117092,1327501316,145A,OK
1117085,1327501161,145A,WRONG_ANSWER
903532,1322247085,131A,OK
869896,1321344358,129C,WRONG_ANSWER
869801,1321344253,129C,WRONG_ANSWER
869725,1321344154,129C,WRONG_ANSWER
868074,1321341591,129B,OK
866411,1321339268,129A,OK
857672,1321004020,96B,OK
857669,1321004007,96A,OK
855115,1270987847,9B,OK
855113,1270987733,9B,WRONG_ANSWER
855107,1270987636,9B,WRONG_ANSWER
855102,1270987602,9B,WRONG_ANSWER
855096,1270987549,9B,WRONG_ANSWER
855093,1270987511,9B,COMPILATION_ERROR
855073,1270987217,9B,OK
855068,1270987098,9B,WRONG_ANSWER
855058,1270986898,9B,OK
855054,1270986634,9B,WRONG_ANSWER
854956,1270984592,9A,OK
854951,1270984415,9A,WRONG_ANSWER
854935,1270984225,9A,OK
854928,1270984078,9A,OK
829651,1320335621,124B,OK
827619,1320333741,124A,OK
826427,1320324925,56D,WRONG_ANSWER
826426,1320324904,56D,RUNTIME_ERROR
826415,1320324621,56D,TIME_LIMIT_EXCEEDED
826414,1320324566,56D,RUNTIME_ERROR
826047,1320310082,56D,WRONG_ANSWER
826004,1320306911,56D,WRONG_ANSWER
821720,1320060086,117C,TIME_LIMIT_EXCEEDED
821672,1320058961,117C,TIME_LIMIT_EXCEEDED
821331,1320049773,117C,TIME_LIMIT_EXCEEDED
821316,1320049269,117C,TIME_LIMIT_EXCEEDED
821119,1320042688,120C,OK
821116,1320042579,120C,WRONG_ANSWER
820856,1320033096,121C,TIME_LIMIT_EXCEEDED
820103,1319997932,121C,TIME_LIMIT_EXCEEDED
820088,1319997170,121C,WRONG_ANSWER
820081,1319997006,121C,WRONG_ANSWER
819999,1319993535,121C,WRONG_ANSWER
819990,1319993388,121C,WRONG_ANSWER
819976,1319993096,121C,WRONG_ANSWER
819964,1319992854,121C,WRONG_ANSWER
819955,1319992785,121C,WRONG_ANSWER
819954,1319992752,121C,MEMORY_LIMIT_EXCEEDED
819951,1319992692,121C,MEMORY_LIMIT_EXCEEDED
819687,1319984211,125C,OK
819662,1319983776,1A,WRONG_ANSWER
819642,1319983217,1A,WRONG_ANSWER
819633,1319983070,1A,WRONG_ANSWER
819622,1319982787,1A,WRONG_ANSWER
819079,1319964079,125B,WRONG_ANSWER
819077,1319964031,125B,RUNTIME_ERROR
817892,1319912527,125C,OK
817890,1319912489,125C,WRONG_ANSWER
817883,1319912427,125C,WRONG_ANSWER
817878,1319912352,125C,WRONG_ANSWER
816822,1319899678,125B,WRONG_ANSWER
816716,1319899218,125B,WRONG_ANSWER
816501,1319898315,125B,WRONG_ANSWER
816131,1319896993,125B,WRONG_ANSWER
815835,1319896078,125B,WRONG_ANSWER
815803,1319896009,125B,WRONG_ANSWER
815791,1319895976,125B,RUNTIME_ERROR
815582,1319895430,125B,WRONG_ANSWER
815569,1319895389,125B,WRONG_ANSWER
815484,1319895172,125B,WRONG_ANSWER
815460,1319895119,125B,COMPILATION_ERROR
814679,1319893573,125A,CHALLENGED
