44723801,1540278017,849C,OK
44723142,1540276498,849B,OK
44722206,1540274326,849A,OK
44654172,1540124761,1072B,OK
44651966,1540122249,1072C,OK
44651643,1540121908,1072C,WRONG_ANSWER
44650783,1540121160,1072C,WRONG_ANSWER
44650282,1540120815,1072C,WRONG_ANSWER
44547598,1539957940,1054D,OK
44546481,1539956461,1054D,WRONG_ANSWER
44546385,1539956323,1054D,WRONG_ANSWER
44546322,1539956222,1054D,WRONG_ANSWER
44546017,1539955779,1054D,WRONG_ANSWER
44544147,1539953243,1054D,WRONG_ANSWER
44543931,1539952921,1054D,WRONG_ANSWER
44543864,1539952834,1054D,WRONG_ANSWER
44540798,1539948279,1054C,OK
44471151,1539844025,359C,OK
44469314,1539839786,359C,WRONG_ANSWER
44468981,1539838719,359C,WRONG_ANSWER
44468813,1539838233,359C,WRONG_ANSWER
44468612,1539837700,359C,WRONG_ANSWER
44458672,1539803470,463D,OK
44452372,1539793639,463D,OK
44445326,1539783788,61D,OK
44442767,1539780471,61D,OK
44441355,1539778523,557C,OK
44432020,1539763642,630C,OK
44405748,1539701122,1066F,OK
44374525,1539635020,1066F,WRONG_ANSWER
44368051,1539625138,1065D,WRONG_ANSWER
44367488,1539624193,1065D,WRONG_ANSWER
44359117,1539611284,1064D,OK
44356303,1539606919,1064E,OK
44356164,1539606744,1063C,IDLENESS_LIMIT_EXCEEDED
44346174,1539588431,1064E,WRONG_ANSWER
44346136,1539588364,1064E,WRONG_ANSWER
44346056,1539588196,1064E,IDLENESS_LIMIT_EXCEEDED
44318796,1539524109,1064E,WRONG_ANSWER
44318651,1539523992,1064E,WRONG_ANSWER
44303660,1539514561,1064D,WRONG_ANSWER
44299590,1539513271,1064C,OK
44297697,1539512777,1064B,OK
44294008,1539511998,1064A,OK
44261131,1539441140,1066D,OK
44248476,1539423295,1066E,OK
44227693,1539376563,1066B,OK
44215498,1539361515,1066C,OK
44213144,1539360838,1066C,WRONG_ANSWER
44203756,1539358257,1066B,OK
44190914,1539355338,1066A,OK
44188371,1539352933,1057C,OK
44178897,1539339263,1057C,TIME_LIMIT_EXCEEDED
44176854,1539335874,1057B,OK
44176661,1539335591,1057A,OK
44175166,1539332912,1065B,OK
44175122,1539332820,1065B,WRONG_ANSWER
44157527,1539284841,1065B,OK
44156994,1539283839,1065B,WRONG_ANSWER
44156928,1539283724,1065B,WRONG_ANSWER
44156887,1539283655,1065B,WRONG_ANSWER
44156659,1539283259,1065B,WRONG_ANSWER
44156180,1539282389,1065A,OK
44156030,1539282087,1065C,OK
44053298,1539117706,100814L,OK
44053188,1539117380,100814L,WRONG_ANSWER
44051386,1539112933,1060E,OK
44051333,1539112812,1060E,WRONG_ANSWER
44026257,1539072366,243A,OK
43977615,1538951387,1033D,OK
43977474,1538950687,1033D,WRONG_ANSWER
43977449,1538950581,1033D,WRONG_ANSWER
43977392,1538950344,1033D,WRONG_ANSWER
43977335,1538950105,1033D,RUNTIME_ERROR
43977286,1538949952,1033D,RUNTIME_ERROR
43976446,1538947624,1033D,WRONG_ANSWER
43976386,1538947451,1033D,OK
43975972,1538946456,1033D,WRONG_ANSWER
43971622,1538939029,1033D,WRONG_ANSWER
43971250,1538938913,1033D,RUNTIME_ERROR
43970492,1538938570,1033D,RUNTIME_ERROR
43961969,1538934467,1033C,OK
43956911,1538933086,1033B,OK
43956685,1538933037,1033B,WRONG_ANSWER
43956367,1538932972,1033B,WRONG_ANSWER
43954527,1538932623,1033B,WRONG_ANSWER
43953261,1538932392,1033A,OK
43871048,1538772307,1059D,OK
43858380,1538756427,1059C,OK
43849893,1538753841,1059C,WRONG_ANSWER
43848921,1538753573,1059C,WRONG_ANSWER
43843587,1538752187,1059B,OK
43833693,1538750524,1059A,OK
43833130,1538750459,1059A,WRONG_ANSWER
43828870,1538744806,1060D,OK
43803304,1538677536,342E,OK
43795790,1538666823,592C,OK
43795549,1538666538,592C,WRONG_ANSWER
43790572,1538660530,592C,WRONG_ANSWER
43790464,1538660405,592C,WRONG_ANSWER
43789473,1538659234,592C,WRONG_ANSWER
43782482,1538651060,592C,WRONG_ANSWER
43782446,1538651026,592C,WRONG_ANSWER
43781915,1538650520,592C,WRONG_ANSWER
43781502,1538649907,592C,COMPILATION_ERROR
43780154,1538645654,1060D,WRONG_ANSWER
43779562,1538645313,1060D,WRONG_ANSWER
43778354,1538644495,1060D,RUNTIME_ERROR
43777508,1538643951,1060D,RUNTIME_ERROR
43777185,1538643743,1060D,RUNTIME_ERROR
43777099,1538643701,1060D,RUNTIME_ERROR
43776163,1538643139,1060D,RUNTIME_ERROR
43769352,1538639734,1060C,OK
43766132,1538638596,1060B,OK
43763283,1538637886,1060A,OK
43762753,1538637764,1060A,WRONG_ANSWER
43759975,1538637198,1060A,WRONG_ANSWER
43045704,1537293340,1041F,OK
43045594,1537293157,1041F,WRONG_ANSWER
43031385,1537271425,1041F,WRONG_ANSWER
43031213,1537271139,1041F,WRONG_ANSWER
43030731,1537270394,1041F,WRONG_ANSWER
43023483,1537254322,1041F,WRONG_ANSWER
43010234,1537207746,1041D,OK
43008478,1537204347,1041C,OK
43007600,1537202788,1041B,OK
43007589,1537202768,1041A,OK
43007556,1537202719,1041E,OK
42581447,1536252866,1038D,OK
42580450,1536252542,1038D,WRONG_ANSWER
42578604,1536252020,1038D,WRONG_ANSWER
42569376,1536249859,1038C,OK
42563173,1536248833,1038B,OK
42559286,1536248280,1038A,OK
42555679,1536242578,1040B,OK
42555381,1536242198,1040B,OK
42521365,1536171023,1040A,OK
42511976,1536168295,1040B,OK
42511216,1536168094,1040B,WRONG_ANSWER
42509461,1536167666,1040B,WRONG_ANSWER
42500556,1536165678,1040A,CHALLENGED
42332883,1535801485,1025D,TIME_LIMIT_EXCEEDED
42332867,1535801454,1025D,TIME_LIMIT_EXCEEDED
42332849,1535801378,1025D,OK
42327627,1535786153,1025D,TIME_LIMIT_EXCEEDED
42287959,1535653923,364A,OK
42287289,1535652186,364A,WRONG_ANSWER
42287223,1535652055,364A,RUNTIME_ERROR
42287117,1535651816,364A,RUNTIME_ERROR
42192825,1535429822,1028B,OK
42192806,1535429772,1028A,OK
42008627,1535056482,1023E,OK
41970048,1534948295,1027D,OK
41855617,1534690772,1025C,OK
41845951,1534688274,1025B,OK
41834873,1534686376,1025A,OK
41833490,1534686228,1025A,WRONG_ANSWER
41818017,1534664337,1027C,OK
41817947,1534664214,1027C,OK
41817850,1534664077,1027C,TIME_LIMIT_EXCEEDED
41817757,1534663896,1027C,OK
41817571,1534663526,1027C,OK
41817376,1534663146,1027C,OK
41817328,1534663053,1027C,OK
41817138,1534662680,1027C,OK
41816997,1534662422,1027C,OK
41816729,1534661954,1027C,TIME_LIMIT_EXCEEDED
41816376,1534661324,1027C,TIME_LIMIT_EXCEEDED
41816340,1534661259,1027C,TIME_LIMIT_EXCEEDED
41816138,1534660890,1027C,TIME_LIMIT_EXCEEDED
41816119,1534660839,1027C,TIME_LIMIT_EXCEEDED
41806098,1534629162,1027C,TIME_LIMIT_EXCEEDED
41806040,1534629014,1027C,TIME_LIMIT_EXCEEDED
41806004,1534628927,1027C,TIME_LIMIT_EXCEEDED
41805976,1534628841,1027C,WRONG_ANSWER
41801912,1534619440,1027C,TIME_LIMIT_EXCEEDED
41801857,1534619337,1027C,TIME_LIMIT_EXCEEDED
41801769,1534619198,1027C,TIME_LIMIT_EXCEEDED
41801706,1534619096,1027C,TIME_LIMIT_EXCEEDED
41800964,1534617873,1027C,TIME_LIMIT_EXCEEDED
41792473,1534609767,1027C,CHALLENGED
41789609,1534609133,1027C,WRONG_ANSWER
41789239,1534609052,1027C,WRONG_ANSWER
41785354,1534608161,1027C,WRONG_ANSWER
41784363,1534607935,1027C,WRONG_ANSWER
41783230,1534607681,1027C,WRONG_ANSWER
41770406,1534605022,1027B,OK
41761915,1534603272,1027A,OK
41755141,1534592354,1023E,TIME_LIMIT_EXCEEDED
41755113,1534592278,1023E,WRONG_ANSWER
41740593,1534569542,1023A,OK
41718510,1534523259,1023D,OK
41700656,1534518868,1023C,OK
41697917,1534518394,1023B,OK
41693971,1534517836,1023A,OK
41625334,1534341871,1017C,OK
41525930,1534074992,1020C,OK
41521995,1534066526,1020C,RUNTIME_ERROR
41521138,1534064731,1020C,RUNTIME_ERROR
41478068,1533995773,1020B,OK
41476433,1533995564,1020B,RUNTIME_ERROR
41473571,1533995219,1020A,OK
41365734,1533744261,1017D,OK
41346094,1533738095,1017B,OK
41341521,1533737492,1017A,OK
41030254,1533048606,1015B,OK
41026276,1533047974,1015A,OK
40984827,1532979374,20C,OK
40887522,1532785214,101853C,OK
40883440,1532778313,101853A,OK
40883208,1532778005,101853A,TIME_LIMIT_EXCEEDED
40882982,1532777650,101853J,OK
40882837,1532777438,101853H,OK
40882725,1532777295,101853F,OK
40882482,1532776873,101853D,OK
40870926,1532758844,1011D,OK
40869443,1532756369,1011D,TIME_LIMIT_EXCEEDED
40860943,1532726048,1011D,TIME_LIMIT_EXCEEDED
40860132,1532722842,1011C,OK
40860094,1532722737,1011C,WRONG_ANSWER
40859691,1532721298,1011B,OK
40859321,1532720228,1011A,OK
40447494,1531760556,1006E,OK
40447364,1531760439,1006E,RUNTIME_ERROR
40437954,1531756883,1006D,OK
40423229,1531753309,1006C,OK
40420037,1531752621,1006B,OK
40416136,1531751943,1006A,OK
40386910,1531682232,1009E,TIME_LIMIT_EXCEEDED
40386874,1531682102,1009E,OK
40386857,1531682057,1009E,OK
40386699,1531681575,1009E,TIME_LIMIT_EXCEEDED
40386625,1531681288,1009E,TIME_LIMIT_EXCEEDED
40386608,1531681202,1009E,TIME_LIMIT_EXCEEDED
40386497,1531680865,1009E,TIME_LIMIT_EXCEEDED
40386343,1531680355,1009E,TIME_LIMIT_EXCEEDED
40386306,1531680250,1009E,WRONG_ANSWER
40386276,1531680154,1009E,WRONG_ANSWER
40375331,1531651307,1009D,OK
40347503,1531585756,1009C,OK
40340936,1531583737,1009C,WRONG_ANSWER
40338942,1531583142,1009C,WRONG_ANSWER
40331673,1531581144,1009B,OK
40329325,1531580572,1009B,WRONG_ANSWER
40324531,1531579433,1009A,OK
40322089,1531579119,1009A,RUNTIME_ERROR
40293849,1531508479,1008E,WRONG_ANSWER
40291256,1531499872,1008E,IDLENESS_LIMIT_EXCEEDED
40281542,1531495765,1008B,OK
40280657,1531495479,1008A,OK
40279689,1531495203,1008C,OK
40277674,1531494691,1008C,WRONG_ANSWER
40277529,1531494658,1008C,WRONG_ANSWER
40277188,1531494576,1008C,COMPILATION_ERROR
40276069,1531494333,1008C,WRONG_ANSWER
40250337,1531460530,998C,OK
40249577,1531458261,998B,OK
40249095,1531456295,998A,OK
40234111,1531403235,1005E1,OK
40234090,1531403185,1005E2,OK
40173750,1531230720,1005F,OK
40157075,1531195654,1005E1,OK
40157061,1531195592,1005E1,WRONG_ANSWER
40138388,1531155396,1005D,OK
40135620,1531154539,1005D,WRONG_ANSWER
40132952,1531153770,1005D,WRONG_ANSWER
40131100,1531153279,1005D,WRONG_ANSWER
40127030,1531152301,1005C,OK
40120904,1531151165,1005B,OK
40118134,1531150788,1005A,OK
40117305,1531150357,431C,OK
40111963,1531138686,580C,OK
40109778,1531133970,236A,OK
40003820,1530814085,1004B,OK
39996620,1530810347,1004A,OK
39996520,1530810313,1004C,OK
39978713,1530781944,1003F,OK
39978455,1530781412,1003F,RUNTIME_ERROR
39978438,1530781379,1003F,COMPILATION_ERROR
39978387,1530781245,1003F,RUNTIME_ERROR
39978179,1530780961,1003F,OK
39977742,1530780001,1003F,RUNTIME_ERROR
39977182,1530778946,1003F,RUNTIME_ERROR
39976907,1530778424,1003F,RUNTIME_ERROR
39949019,1530695117,1003B,WRONG_ANSWER
39948977,1530695031,1003B,WRONG_ANSWER
39948925,1530694943,1003B,TIME_LIMIT_EXCEEDED
39946596,1530690374,1003E,OK
39931420,1530639389,1003E,WRONG_ANSWER
39919410,1530633464,1003D,OK
39908412,1530630914,1003C,OK
39903833,1530629950,1003B,OK
39899031,1530629025,1003A,OK
39724990,1530123928,1000A,OK
39724340,1530122079,1000A,WRONG_ANSWER
39724332,1530122055,1000B,OK
39676794,1530019736,996E,OK
39676774,1530019693,996E,OK
39676758,1530019652,996E,OK
39676740,1530019609,996E,OK
39676701,1530019548,996E,WRONG_ANSWER
39676683,1530019491,996E,OK
39676256,1530018394,996E,WRONG_ANSWER
39672228,1530007532,996C,OK
39671616,1530005978,996C,WRONG_ANSWER
39669479,1530000783,996C,WRONG_ANSWER
39628016,1529864920,996D,OK
39623259,1529862773,996D,WRONG_ANSWER
39618016,1529860545,996B,OK
39611208,1529858605,996A,OK
39596560,1529831554,991C,OK
39582078,1529786681,991E,OK
39582008,1529786525,991E,WRONG_ANSWER
39580455,1529783502,991B,OK
39580017,1529782852,991C,OK
39579089,1529781838,991D,OK
39579077,1529781819,991C,WRONG_ANSWER
39579060,1529781802,991B,WRONG_ANSWER
39579032,1529781772,991A,OK
39526809,1529697099,999D,OK
39526763,1529696976,999D,WRONG_ANSWER
39525973,1529694662,999D,TIME_LIMIT_EXCEEDED
39495464,1529601261,999B,OK
39493322,1529598965,999A,OK
39492403,1529598734,999D,TIME_LIMIT_EXCEEDED
39475249,1529593490,999C,OK
39474255,1529593277,999C,WRONG_ANSWER
39456009,1529570586,992D,OK
39455688,1529569822,992D,WRONG_ANSWER
39454144,1529565977,992D,TIME_LIMIT_EXCEEDED
39454057,1529565731,992D,TIME_LIMIT_EXCEEDED
39451915,1529558966,992D,TIME_LIMIT_EXCEEDED
39451665,1529558029,992D,OK
39451064,1529555526,992D,TIME_LIMIT_EXCEEDED
39444606,1529521439,992D,WRONG_ANSWER
39439715,1529507831,994E,OK
39439657,1529507684,994E,COMPILATION_ERROR
39431047,1529485554,994E,OK
39418990,1529431498,994E,WRONG_ANSWER
39418819,1529431066,994E,WRONG_ANSWER
39378560,1529344119,992C,OK
39377752,1529343903,992C,WRONG_ANSWER
39371008,1529342135,992B,OK
39362108,1529339944,992A,OK
39335900,1529240899,994D,OK
39335678,1529240327,994D,WRONG_ANSWER
39335633,1529240208,994D,WRONG_ANSWER
39329515,1529223976,994C,OK
39328839,1529222434,994C,WRONG_ANSWER
39325628,1529214027,994C,OK
39315966,1529175720,994C,WRONG_ANSWER
39314453,1529175122,994C,WRONG_ANSWER
39313720,1529174828,994C,WRONG_ANSWER
39306891,1529171785,994C,WRONG_ANSWER
39304801,1529170942,994C,WRONG_ANSWER
39300462,1529169322,994B,OK
39299538,1529169012,994B,WRONG_ANSWER
39298965,1529168830,994B,WRONG_ANSWER
39292384,1529167139,994A,OK
39173739,1528745586,989C,OK
39167314,1528731134,989C,OK
39165012,1528729849,989C,WRONG_ANSWER
39156006,1528725890,989B,OK
39151513,1528724833,989A,OK
39147253,1528722411,990D,OK
39145715,1528718823,990E,OK
39099556,1528627336,990C,OK
39094942,1528626294,990B,OK
39089820,1528625394,990A,OK
38999336,1528301297,988E,OK
38983314,1528259429,988D,OK
38977310,1528225553,988C,OK
38977145,1528225077,988C,WRONG_ANSWER
38976187,1528222167,988B,OK
38975915,1528221380,988A,OK
38604971,1527240482,550A,OK
38604515,1527239123,337A,OK
38604260,1527238223,489B,OK
38565738,1527087324,313B,OK
38558564,1527071368,489B,WRONG_ANSWER
38558262,1527070643,489B,WRONG_ANSWER
38538422,1526998797,327A,OK
38532603,1526987203,327A,OK
38532467,1526986934,327A,WRONG_ANSWER
38526611,1526973341,489C,OK
38526508,1526973097,489C,WRONG_ANSWER
38523178,1526962039,189A,OK
38485098,1526910673,983A,OK
38481763,1526902280,984C,TIME_LIMIT_EXCEEDED
38481734,1526902194,984C,WRONG_ANSWER
38479979,1526897871,984D,OK
38479953,1526897793,984D,TIME_LIMIT_EXCEEDED
38440720,1526756436,984B,OK
38440402,1526755176,984A,OK
38387753,1526614416,115A,OK
38387712,1526614238,115A,OK
37619993,1524691688,965C,OK
37619904,1524691364,965C,WRONG_ANSWER
37619736,1524690830,965C,RUNTIME_ERROR
37617850,1524686634,965C,WRONG_ANSWER
37617492,1524686273,965C,WRONG_ANSWER
37420272,1524000308,964A,OK
37239955,1523511766,962D,OK
37239936,1523511699,962D,WRONG_ANSWER
37177157,1523381401,962C,OK
37175752,1523379263,962C,WRONG_ANSWER
37175697,1523379200,962C,WRONG_ANSWER
37173910,1523377974,962C,WRONG_ANSWER
37167770,1523375873,962B,OK
37165614,1523375161,962B,WRONG_ANSWER
37165242,1523375039,962B,WRONG_ANSWER
37163265,1523374431,962B,WRONG_ANSWER
37159068,1523373300,962B,WRONG_ANSWER
37148969,1523371175,962A,OK
37138041,1523345117,961E,OK
37131947,1523309253,961E,OK
37131602,1523307458,961E,RUNTIME_ERROR
37131172,1523305445,961E,WRONG_ANSWER
37117659,1523267025,961D,OK
37090748,1523174042,960C,OK
37075003,1523123896,960A,OK
37073133,1523122937,960C,CHALLENGED
37072744,1523122762,960C,WRONG_ANSWER
37066573,1523120177,960B,OK
37066332,1523120092,960B,SKIPPED
37063045,1523118999,960B,WRONG_ANSWER
37062152,1523118742,960B,WRONG_ANSWER
37056225,1523117437,960A,SKIPPED
37054306,1523114638,961C,OK
36967651,1522855060,961C,CHALLENGED
36960216,1522852630,961B,OK
36954752,1522851344,961A,OK
36954009,1522851207,961A,COMPILATION_ERROR
36931969,1522783325,959B,OK
36923287,1522776248,959B,OK
36917102,1522773919,959B,TIME_LIMIT_EXCEEDED
36913774,1522772820,959B,WRONG_ANSWER
36909497,1522771822,959A,OK
36881763,1522680955,455A,OK
36881676,1522680750,455A,OK
36880713,1522678371,455A,OK
36880283,1522677303,455A,WRONG_ANSWER
36879761,1522676150,455A,WRONG_ANSWER
36879714,1522676043,455A,WRONG_ANSWER
36879621,1522675837,455A,COMPILATION_ERROR
36874222,1522662183,580A,OK
36873038,1522658526,952A,OK
36671809,1522162804,955C,OK
36671171,1522161375,955C,WRONG_ANSWER
36542729,1521825363,955B,OK
36539077,1521824129,955A,OK
36025639,1520362304,946D,WRONG_ANSWER
36021118,1520355601,946D,WRONG_ANSWER
36020027,1520355152,946D,WRONG_ANSWER
36006470,1520350453,946C,OK
36003338,1520349824,946B,OK
35996815,1520348876,946A,OK
35810205,1519904661,339A,OK
35810075,1519904385,339A,WRONG_ANSWER
35733361,1519651829,937B,OK
35703621,1519579985,937B,TIME_LIMIT_EXCEEDED
35688423,1519575047,937A,OK
35257114,1518615250,934C,WRONG_ANSWER
35245978,1518612536,934B,OK
35245390,1518612420,934B,WRONG_ANSWER
35241796,1518611755,934B,WRONG_ANSWER
35239036,1518611325,934B,WRONG_ANSWER
35232196,1518610425,934A,OK
35206075,1518540489,4A,OK
35206005,1518540371,4A,WRONG_ANSWER
35097356,1518192221,313A,OK
35096769,1518191388,472A,OK
35096623,1518191160,472A,OK
35093289,1518186263,122A,OK
35049555,1518076898,922A,OK
35049405,1518076669,922A,WRONG_ANSWER
35020652,1518026680,922B,OK
35010083,1518024466,922A,CHALLENGED
