53564553,1556624524,1157C1,TIME_LIMIT_EXCEEDED
53564158,1556623768,1157C1,TIME_LIMIT_EXCEEDED
53564123,1556623691,1157C1,TIME_LIMIT_EXCEEDED
53564036,1556623528,1157C1,TIME_LIMIT_EXCEEDED
53563969,1556623395,1157C1,TIME_LIMIT_EXCEEDED
53563936,1556623333,1157C1,WRONG_ANSWER
53563685,1556622827,1157C1,WRONG_ANSWER
53563290,1556621963,1157B,WRONG_ANSWER
53563201,1556621734,1157B,WRONG_ANSWER
53562826,1556620840,1157A,OK
53469304,1556452589,1152B,OK
53468995,1556451965,1152B,WRONG_ANSWER
53467000,1556448099,1152A,OK
18612489,1466418815,682B,OK
18612316,1466418062,682A,OK
10572842,1428148464,525A,OK
8277812,1413531153,478A,WRONG_ANSWER
5598690,1388588192,379D,WRONG_ANSWER
5598088,1388581694,379C,OK
5598083,1388581629,379C,WRONG_ANSWER
5596978,1388566492,379A,OK
5412946,1386825342,369C,WRONG_ANSWER
5412897,1386824490,369C,WRONG_ANSWER
5346259,1386145385,369B,WRONG_ANSWER
5345861,1386135971,369B,WRONG_ANSWER
5345769,1386133214,369A,OK
4847970,1382498821,357A,OK
4595793,1380356197,349A,WRONG_ANSWER
4595780,1380356130,349A,WRONG_ANSWER
4354973,1377579742,339C,WRONG_ANSWER
4354953,1377579447,339C,WRONG_ANSWER
4354878,1377578165,339C,WRONG_ANSWER
4354793,1377576829,339B,OK
4354750,1377575872,339A,OK
4303587,1376744384,337C,WRONG_ANSWER
4303542,1376743910,337C,WRONG_ANSWER
4302719,1376734306,337A,OK
4191463,1374950892,334C,OK
4191398,1374949843,334B,OK
4191359,1374949065,334B,WRONG_ANSWER
4191340,1374948633,334A,OK
4157839,1374689016,332A,OK
4157452,1374687756,332A,WRONG_ANSWER
4155939,1374686429,332A,WRONG_ANSWER
4155069,1374685642,332A,WRONG_ANSWER
4150453,1374682413,332B,OK
4148860,1374680822,332A,WRONG_ANSWER
4132879,1374474005,329B,OK
4123688,1374346837,330C,OK
4123569,1374345778,330C,WRONG_ANSWER
4117547,1374330185,330C,WRONG_ANSWER
4116356,1374329290,330C,WRONG_ANSWER
4114138,1374328045,330B,OK
4112690,1374327445,330A,OK
4111051,1374312087,230C,WRONG_ANSWER
4111039,1374311904,230C,WRONG_ANSWER
4110657,1374309088,230B,OK
4110644,1374308988,230B,WRONG_ANSWER
4110630,1374308841,230B,TIME_LIMIT_EXCEEDED
4110602,1374308555,230B,TIME_LIMIT_EXCEEDED
4110590,1374308454,230B,WRONG_ANSWER
4110333,1374305987,230A,OK
4110313,1374305811,230A,WRONG_ANSWER
4080840,1373977554,327C,OK
4080488,1373973197,327D,OK
4080471,1373973012,327D,WRONG_ANSWER
4066459,1373767602,325A,OK
4066443,1373767275,325A,WRONG_ANSWER
4066436,1373767164,325A,WRONG_ANSWER
4064147,1373740201,325A,WRONG_ANSWER
4063916,1373739763,325A,WRONG_ANSWER
4063283,1373738668,325A,CHALLENGED
4061045,1373735498,325A,WRONG_ANSWER
4035962,1373223042,327B,OK
4035948,1373222848,327B,RUNTIME_ERROR
4035922,1373222313,327A,OK
4035907,1373221853,327A,WRONG_ANSWER
4007439,1372869492,322B,WRONG_ANSWER
4007383,1372868622,322B,WRONG_ANSWER
4007377,1372868493,322B,WRONG_ANSWER
4007355,1372868218,322A,OK
3963838,1372252737,259C,OK
3963816,1372252309,259B,OK
3963735,1372251088,259A,OK
3951444,1372004600,320A,WRONG_ANSWER
3951392,1372004427,320A,WRONG_ANSWER
3951360,1372004339,320A,WRONG_ANSWER
3946142,1371995151,320B,OK
3943084,1371992895,320A,WRONG_ANSWER
3936551,1371924246,296A,OK
3936546,1371924179,296A,WRONG_ANSWER
3936532,1371923987,296A,WRONG_ANSWER
3936527,1371923941,296A,WRONG_ANSWER
3936510,1371923517,296A,WRONG_ANSWER
3936498,1371923360,296A,WRONG_ANSWER
3934607,1371884242,305A,WRONG_ANSWER
3934579,1371883691,305B,WRONG_ANSWER
3934573,1371883567,305B,WRONG_ANSWER
3934488,1371881235,305A,WRONG_ANSWER
3934487,1371881209,305A,COMPILATION_ERROR
3934476,1371880692,305A,WRONG_ANSWER
3932994,1371832423,304B,WRONG_ANSWER
3932975,1371832023,304B,WRONG_ANSWER
3932973,1371831964,304B,WRONG_ANSWER
3932971,1371831934,304B,WRONG_ANSWER
3932943,1371831479,304B,WRONG_ANSWER
3931925,1371815996,312C,OK
3931892,1371815504,312C,WRONG_ANSWER
3931831,1371813882,312B,OK
3931772,1371812747,312A,WRONG_ANSWER
3931720,1371812134,312A,WRONG_ANSWER
3931444,1371806505,315A,WRONG_ANSWER
3931201,1371802058,315A,WRONG_ANSWER
3931196,1371801983,315A,WRONG_ANSWER
3931185,1371801805,315A,WRONG_ANSWER
3917537,1371645336,318D,OK
3917514,1371644996,318D,WRONG_ANSWER
3917498,1371644752,318D,WRONG_ANSWER
3917479,1371644491,318D,WRONG_ANSWER
3909450,1371469506,318B,OK
3909436,1371469369,318B,WRONG_ANSWER
3909337,1371467972,318C,OK
3895124,1371230758,318C,WRONG_ANSWER
3894940,1371230643,318C,WRONG_ANSWER
3893153,1371229350,318C,WRONG_ANSWER
3884221,1371224154,318A,OK
3871093,1371051830,316A2,TIME_LIMIT_EXCEEDED
3870833,1371051588,316A2,WRONG_ANSWER
3866659,1371047544,316A2,WRONG_ANSWER
3866020,1371046840,316A1,OK
3857545,1370955651,315A,COMPILATION_ERROR
3857542,1370955588,315A,COMPILATION_ERROR
3857525,1370955411,315A,WRONG_ANSWER
3857506,1370955225,314A,WRONG_ANSWER
3829782,1370575172,313D,OK
3827478,1370514164,313C,OK
3827388,1370512875,313C,RUNTIME_ERROR
3827378,1370512758,313C,RUNTIME_ERROR
3827374,1370512715,313C,RUNTIME_ERROR
3827367,1370512600,313C,WRONG_ANSWER
3821169,1370341906,313B,OK
3821153,1370341441,313A,OK
3821145,1370341193,313A,WRONG_ANSWER
3715475,1368428234,304C,OK
3715429,1368427032,304A,OK
3689765,1367919367,300C,OK
3684682,1367819156,302C,OK
3684658,1367818949,302C,WRONG_ANSWER
3684418,1367815820,302C,WRONG_ANSWER
3684412,1367815740,302C,COMPILATION_ERROR
3684300,1367813733,302C,WRONG_ANSWER
3684217,1367812513,302B,OK
3684154,1367811592,302A,OK
3684147,1367811540,302A,COMPILATION_ERROR
3675226,1367770988,302A,WRONG_ANSWER
3644470,1367078594,300B,OK
3644422,1367077779,300B,OK
3644408,1367077546,300B,WRONG_ANSWER
3642678,1367064572,100187L,OK
3637507,1367000526,300B,WRONG_ANSWER
3637501,1367000335,300B,WRONG_ANSWER
3636293,1366985488,300B,WRONG_ANSWER
3635831,1366980826,300A,OK
3635821,1366980672,300A,WRONG_ANSWER
3617733,1366823636,200B,OK
3579858,1366452044,298D,TIME_LIMIT_EXCEEDED
3573590,1366390955,298D,TIME_LIMIT_EXCEEDED
3573022,1366390446,298D,WRONG_ANSWER
3568833,1366387676,298A,OK
3567398,1366386991,298B,OK
3544935,1366042936,292B,OK
3543228,1366041343,292A,OK
3542933,1366041172,292A,WRONG_ANSWER
3539719,1366008169,173A,OK
3535005,1365945265,291C,OK
3532608,1365928276,291B,OK
3532482,1365927523,291B,WRONG_ANSWER
3522387,1365829649,291A,OK
3522376,1365829481,291A,WRONG_ANSWER
3522370,1365829360,291A,WRONG_ANSWER
3502314,1365664945,280B,OK
3502268,1365664030,280B,OK
3502222,1365663620,280B,WRONG_ANSWER
3502218,1365663536,280B,WRONG_ANSWER
3502144,1365662121,281B,OK
3502141,1365662084,281B,COMPILATION_ERROR
3500718,1365619887,281D,WRONG_ANSWER
3500712,1365619813,281D,WRONG_ANSWER
3499446,1365596006,281B,OK
3499418,1365595589,281B,WRONG_ANSWER
3499399,1365595253,281B,WRONG_ANSWER
3497234,1365524119,294C,OK
3497231,1365524091,294C,WRONG_ANSWER
3496904,1365518420,294B,OK
3496892,1365518242,294B,WRONG_ANSWER
3494137,1365441918,268E,WRONG_ANSWER
3482745,1365349031,294A,OK
3398150,1364103267,287C,OK
3398141,1364103152,287C,OK
3384919,1364026080,287A,OK
3370994,1363881927,285B,OK
3369935,1363881361,285C,OK
3368728,1363880861,285A,OK
3367281,1363880366,285A,WRONG_ANSWER
3360323,1363775761,284D,OK
3360314,1363775550,284D,OK
3360258,1363774535,284D,TIME_LIMIT_EXCEEDED
3360249,1363774364,284D,TIME_LIMIT_EXCEEDED
3358097,1363713373,284D,TIME_LIMIT_EXCEEDED
3358052,1363712784,284D,TIME_LIMIT_EXCEEDED
3356992,1363699197,284D,TIME_LIMIT_EXCEEDED
3356969,1363698968,284D,TIME_LIMIT_EXCEEDED
3356952,1363698874,284D,RUNTIME_ERROR
3356910,1363698595,284D,RUNTIME_ERROR
3356556,1363695611,284D,RUNTIME_ERROR
3356535,1363695417,284D,WRONG_ANSWER
3342368,1363540987,284C,OK
3338777,1363538242,284A,OK
3332655,1363535207,284B,OK
3330108,1363521391,275C,OK
3330082,1363520762,275C,RUNTIME_ERROR
3329993,1363519462,275A,OK
3323762,1363410193,282D,OK
3315268,1363252193,282A,OK
3315248,1363251933,282C,OK
3315181,1363251207,282C,WRONG_ANSWER
3315138,1363250772,282B,OK
3315123,1363250599,282C,WRONG_ANSWER
3315107,1363250500,282B,WRONG_ANSWER
3315044,1363249965,282B,WRONG_ANSWER
3297155,1363153185,276B,OK
3297127,1363152153,276A,OK
3290369,1363010389,278A,OK
3290321,1363009784,278C,OK
3290156,1363007975,278C,WRONG_ANSWER
3274530,1362929529,281A,OK
3111289,1360754111,253B,OK
3111277,1360753947,253B,WRONG_ANSWER
3110751,1360741992,253B,WRONG_ANSWER
3110732,1360741625,253B,WRONG_ANSWER
3110728,1360741499,253B,WRONG_ANSWER
3110719,1360741202,253B,WRONG_ANSWER
3110714,1360741139,165C,OK
3109817,1360700136,253B,WRONG_ANSWER
3109799,1360699698,165C,OK
3109778,1360699042,165C,OK
3109764,1360698713,165C,WRONG_ANSWER
3109686,1360697731,165C,WRONG_ANSWER
3109419,1360694466,189A,OK
3109344,1360693671,218B,OK
3109249,1360692240,218B,WRONG_ANSWER
3107737,1360675285,137D,WRONG_ANSWER
3098627,1360599555,148B,OK
3098517,1360599457,148B,WRONG_ANSWER
3093268,1360587242,148B,WRONG_ANSWER
3092966,1360581221,59C,OK
3092962,1360580975,59C,WRONG_ANSWER
3092956,1360580891,59C,WRONG_ANSWER
3092810,1360577133,59D,WRONG_ANSWER
3091466,1360519310,137E,TIME_LIMIT_EXCEEDED
3091445,1360518770,137E,TIME_LIMIT_EXCEEDED
3091354,1360516601,148C,OK
3091342,1360516356,148C,WRONG_ANSWER
3091306,1360515666,148C,WRONG_ANSWER
3091109,1360512499,137B,OK
3091095,1360512181,137A,OK
3091091,1360512139,137A,WRONG_ANSWER
3091006,1360510686,59A,OK
3088878,1360489753,252C,OK
3088875,1360489682,252C,OK
3088867,1360489203,252C,WRONG_ANSWER
3088834,1360488316,252C,WRONG_ANSWER
3088541,1360481203,252B,TIME_LIMIT_EXCEEDED
3088530,1360480503,252B,WRONG_ANSWER
3087050,1360423226,255B,OK
3087045,1360423147,255A,OK
3086898,1360420111,255B,OK
3086897,1360420048,255B,WRONG_ANSWER
3086860,1360419220,255A,OK
3086849,1360419014,255A,WRONG_ANSWER
3086074,1360404443,254B,OK
3086073,1360404411,254B,OK
3086068,1360404338,254B,OK
3086056,1360403953,254B,OK
3086049,1360403819,254B,OK
3086044,1360403702,254B,RUNTIME_ERROR
3086040,1360403597,254B,RUNTIME_ERROR
3086025,1360403176,254B,RUNTIME_ERROR
3086007,1360402723,254B,RUNTIME_ERROR
3085999,1360402641,254B,RUNTIME_ERROR
3085461,1360389308,254C,OK
3085457,1360389192,254C,OK
3085443,1360388582,254C,WRONG_ANSWER
3084683,1360348190,254C,WRONG_ANSWER
3084251,1360339532,254A,OK
3084242,1360339391,254A,OK
3084216,1360338915,254A,OK
3084213,1360338859,254A,COMPILATION_ERROR
3084048,1360336086,254A,WRONG_ANSWER
3084044,1360336043,254A,RUNTIME_ERROR
3084023,1360335583,254A,WRONG_ANSWER
3081409,1360249229,270B,WRONG_ANSWER
3081355,1360248461,270A,OK
3028197,1359392290,268C,WRONG_ANSWER
3028076,1359392111,268C,WRONG_ANSWER
3025843,1359389688,268B,OK
3025308,1359389317,268B,WRONG_ANSWER
3022857,1359388060,268A,OK
3003312,1359037713,100155B,TIME_LIMIT_EXCEEDED
3002966,1359035513,100155C,OK
3002671,1359033691,100155A,WRONG_ANSWER
3002545,1359032945,100155I,OK
3002278,1359031540,100155D,OK
2989068,1358870872,266B,OK
2987181,1358869473,266A,OK
2984244,1358866212,257D,WRONG_ANSWER
2980520,1358789025,262C,OK
2978609,1358775394,262B,OK
2978601,1358775274,262B,RUNTIME_ERROR
2978596,1358775220,262B,COMPILATION_ERROR
2978536,1358774381,262B,WRONG_ANSWER
2978522,1358774202,262B,WRONG_ANSWER
2978478,1358773604,262B,WRONG_ANSWER
2978468,1358773509,262B,WRONG_ANSWER
2978444,1358773136,262B,WRONG_ANSWER
2978437,1358773022,262B,WRONG_ANSWER
2978394,1358772530,262A,OK
2945157,1358359580,263A,OK
2945094,1358359450,263B,OK
2945035,1358359286,263B,WRONG_ANSWER
2944981,1358359199,263C,WRONG_ANSWER
2732738,1355028067,252C,WRONG_ANSWER
2732649,1355026506,252B,WRONG_ANSWER
2732603,1355025504,252A,OK
2732597,1355025323,252A,COMPILATION_ERROR
2732497,1355023418,252B,WRONG_ANSWER
2569823,1353081873,244A,OK
2538647,1352652630,242D,WRONG_ANSWER
2538177,1352651760,242A,OK
2537420,1352650535,242A,WRONG_ANSWER
2537238,1352650306,242A,WRONG_ANSWER
2536593,1352649634,242B,OK
2535311,1352648714,242A,WRONG_ANSWER
2532079,1352614381,225C,WRONG_ANSWER
2531229,1352572442,225C,WRONG_ANSWER
2531225,1352572349,225C,WRONG_ANSWER
2527741,1352471907,225B,WRONG_ANSWER
2513262,1352178445,237A,OK
2513253,1352178204,237A,WRONG_ANSWER
2513231,1352177642,237A,WRONG_ANSWER
2511713,1352130177,239B,WRONG_ANSWER
2499681,1352045782,239A,OK
2493435,1351917686,224B,OK
2489882,1351845396,224B,WRONG_ANSWER
2489822,1351844565,224A,OK
2489817,1351844525,224A,COMPILATION_ERROR
2466742,1351513033,231A,OK
2443041,1351345841,100110A,WRONG_ANSWER
2442951,1351345122,100110A,WRONG_ANSWER
2442553,1351341738,100110B,WRONG_ANSWER
2442514,1351341344,100110B,WRONG_ANSWER
2441165,1351318545,233B,OK
2441098,1351316458,233B,OK
2440989,1351313715,233A,OK
2440953,1351312636,236C,WRONG_ANSWER
2440921,1351310672,236C,WRONG_ANSWER
2440313,1351279103,236A,OK
2440291,1351278477,236B,OK
