21483042,1476613499,731C,OK
21480116,1476612468,731B,OK
21476995,1476611584,731A,OK
21219978,1475694121,710F,WRONG_ANSWER
21211702,1475678552,271D,OK
21211603,1475678382,271D,OK
21211518,1475678232,271D,WRONG_ANSWER
21211410,1475678027,271D,WRONG_ANSWER
21211394,1475678003,271D,WRONG_ANSWER
21211367,1475677945,271D,WRONG_ANSWER
21211016,1475677230,271D,WRONG_ANSWER
21210933,1475677081,271D,TIME_LIMIT_EXCEEDED
21210881,1475676953,271D,COMPILATION_ERROR
21210857,1475676899,271D,COMPILATION_ERROR
21210310,1475675705,271D,COMPILATION_ERROR
20859383,1474640779,719B,WRONG_ANSWER
20859183,1474640704,719B,WRONG_ANSWER
20858968,1474640638,719B,WRONG_ANSWER
20853989,1474639149,719B,WRONG_ANSWER
20853486,1474639014,719B,WRONG_ANSWER
20852931,1474638866,719B,WRONG_ANSWER
20851602,1474638537,719B,WRONG_ANSWER
20840448,1474636504,719A,OK
20778513,1474382520,688B,OK
20778370,1474382139,688C,OK
20778147,1474381429,688C,WRONG_ANSWER
20778093,1474381251,688C,WRONG_ANSWER
20777434,1474379425,688A,OK
20609113,1473840672,714B,OK
20609063,1473840482,714B,WRONG_ANSWER
20609041,1473840378,714B,WRONG_ANSWER
20609017,1473840267,714B,WRONG_ANSWER
20589283,1473788688,714A,OK
20588884,1473788548,714B,WRONG_ANSWER
20587859,1473788186,714B,RUNTIME_ERROR
20586817,1473787850,714B,RUNTIME_ERROR
20586215,1473787657,714B,RUNTIME_ERROR
20586113,1473787624,714B,MEMORY_LIMIT_EXCEEDED
20582646,1473786717,714C,OK
20578222,1473785794,714A,WRONG_ANSWER
20577656,1473785700,714A,WRONG_ANSWER
20260121,1472491194,711D,OK
20259590,1472490316,711B,OK
20259512,1472490197,711B,WRONG_ANSWER
20259414,1472490065,711C,OK
20259402,1472490049,711C,WRONG_ANSWER
20259128,1472489674,711C,WRONG_ANSWER
20259026,1472489444,711C,WRONG_ANSWER
20243360,1472475476,711B,CHALLENGED
20242165,1472475177,711B,WRONG_ANSWER
20239325,1472474474,711B,WRONG_ANSWER
20238659,1472474322,711B,WRONG_ANSWER
20230357,1472472737,711A,OK
20130788,1472062731,709D,WRONG_ANSWER
20130267,1472062495,709D,WRONG_ANSWER
20122440,1472059535,709B,OK
20119712,1472058775,709C,OK
20118635,1472058507,709C,WRONG_ANSWER
20113267,1472057333,709A,OK
20087435,1471961684,710F,WRONG_ANSWER
20087423,1471961648,710F,CHALLENGED
20087410,1471961590,710F,CHALLENGED
20087390,1471961544,710F,CHALLENGED
20087291,1471961247,710F,TIME_LIMIT_EXCEEDED
20087242,1471961098,710F,WRONG_ANSWER
20087188,1471960918,710F,TIME_LIMIT_EXCEEDED
20087092,1471960649,710F,TIME_LIMIT_EXCEEDED
20084640,1471953313,295A,OK
20084575,1471953143,295A,WRONG_ANSWER
20084500,1471952923,295A,WRONG_ANSWER
20084435,1471952711,295A,WRONG_ANSWER
20084247,1471952147,295A,WRONG_ANSWER
20083840,1471950781,295A,RUNTIME_ERROR
20083775,1471950571,295A,RUNTIME_ERROR
20068845,1471888084,710B,OK
20068768,1471888032,710B,COMPILATION_ERROR
20068739,1471887951,710B,WRONG_ANSWER
20068710,1471887862,710B,WRONG_ANSWER
20065865,1471882196,710B,WRONG_ANSWER
20065489,1471882076,710B,WRONG_ANSWER
20065278,1471881998,710B,WRONG_ANSWER
20064512,1471881638,710D,WRONG_ANSWER
20064290,1471881525,710D,WRONG_ANSWER
20062432,1471880590,710B,WRONG_ANSWER
20059738,1471879212,710E,OK
20058592,1471878648,710E,WRONG_ANSWER
20057623,1471878193,710C,OK
20057127,1471877977,710C,WRONG_ANSWER
20056978,1471877910,710C,WRONG_ANSWER
20055177,1471877170,710B,WRONG_ANSWER
20053844,1471876708,710B,WRONG_ANSWER
20053492,1471876603,710B,WRONG_ANSWER
20052890,1471876404,710B,WRONG_ANSWER
20052589,1471876311,710B,WRONG_ANSWER
20048250,1471875305,710A,OK
20010878,1471720003,707D,OK
20010686,1471719604,707D,RUNTIME_ERROR
20010526,1471719285,707D,WRONG_ANSWER
20009882,1471718020,707D,WRONG_ANSWER
20009847,1471717924,707D,WRONG_ANSWER
20009760,1471717741,707D,WRONG_ANSWER
20009563,1471717401,707D,WRONG_ANSWER
20009308,1471716951,707D,WRONG_ANSWER
20009247,1471716828,707D,COMPILATION_ERROR
20007767,1471714474,707D,MEMORY_LIMIT_EXCEEDED
20007293,1471713878,707D,COMPILATION_ERROR
20006981,1471713506,707D,COMPILATION_ERROR
20006714,1471713219,707D,MEMORY_LIMIT_EXCEEDED
19992711,1471700707,707D,WRONG_ANSWER
19992326,1471700580,707D,WRONG_ANSWER
19991843,1471700436,707D,WRONG_ANSWER
19983808,1471698650,707A,OK
19978764,1471684602,550C,OK
19978726,1471684433,550C,WRONG_ANSWER
19978069,1471682253,515C,OK
19977914,1471681781,368B,OK
19970032,1471634000,474D,OK
19969995,1471633841,474D,TIME_LIMIT_EXCEEDED
19969848,1471633275,474D,TIME_LIMIT_EXCEEDED
19969798,1471633099,474D,WRONG_ANSWER
19969772,1471633009,474D,WRONG_ANSWER
19969563,1471632193,455A,OK
19969523,1471632050,455A,WRONG_ANSWER
19968400,1471628019,538B,OK
19905707,1471346266,701A,OK
19904648,1471341913,701C,OK
19904579,1471341579,701C,RUNTIME_ERROR
19904093,1471339685,701B,OK
19903963,1471339192,701A,WRONG_ANSWER
19893134,1471282643,697E,OK
19889094,1471268335,697C,OK
19888485,1471266255,697B,WRONG_ANSWER
19888376,1471265962,697B,WRONG_ANSWER
19888173,1471265397,697A,OK
19835387,1471028014,246D,OK
19835354,1471027883,246D,WRONG_ANSWER
19835281,1471027447,246D,WRONG_ANSWER
19826874,1471000348,706D,OK
19826838,1471000218,706D,WRONG_ANSWER
19826800,1471000040,706D,RUNTIME_ERROR
19809771,1470939903,706D,RUNTIME_ERROR
19809544,1470939807,706D,RUNTIME_ERROR
19809334,1470939721,706D,WRONG_ANSWER
19793790,1470934525,706B,OK
19791848,1470934101,706A,OK
19726995,1470656278,705C,OK
19726892,1470655923,705C,TIME_LIMIT_EXCEEDED
19726808,1470655592,705C,WRONG_ANSWER
19726739,1470655336,705C,WRONG_ANSWER
19726642,1470654986,705C,WRONG_ANSWER
19726620,1470654918,704A,WRONG_ANSWER
19702606,1470582809,705C,WRONG_ANSWER
19701324,1470582320,705C,WRONG_ANSWER
19701124,1470582239,705C,WRONG_ANSWER
19700957,1470582176,705C,WRONG_ANSWER
19700510,1470582013,705C,WRONG_ANSWER
19693818,1470579812,705B,OK
19691757,1470579364,705A,OK
19681376,1470552277,580C,OK
19681205,1470551545,580C,WRONG_ANSWER
19681158,1470551359,580C,WRONG_ANSWER
18372114,1465638484,651B,OK
18371812,1465637521,677B,OK
18371793,1465637473,677B,WRONG_ANSWER
18371771,1465637402,677B,WRONG_ANSWER
18371621,1465636785,677B,TIME_LIMIT_EXCEEDED
18371417,1465635842,677B,TIME_LIMIT_EXCEEDED
18143854,1464514291,670B,OK
18126276,1464414484,672B,OK
18126056,1464413333,675B,OK
18126029,1464413134,676B,OK
18126012,1464413039,676B,RUNTIME_ERROR
18125968,1464412814,676B,WRONG_ANSWER
12830271,1441292683,572B,OK
12723045,1440698116,268C,OK
12722328,1440694519,266B,OK
12722190,1440693973,4A,OK
9824594,1423908141,478C,OK
9824547,1423907642,455A,OK
9824320,1423905420,479C,OK
9823886,1423901255,401C,OK
9823872,1423900959,466C,OK
9823854,1423900769,466C,WRONG_ANSWER
9823618,1423897613,489C,OK
9823599,1423897322,489C,WRONG_ANSWER
9632087,1422643793,489B,OK
9530012,1422039961,507A,OK
9519163,1422030306,507A,WRONG_ANSWER
8469419,1414587870,469A,WRONG_ANSWER
8466587,1414569058,476A,OK
