61631278,1569942478,1234D,OK
61627335,1569941996,1234D,MEMORY_LIMIT_EXCEEDED
61620207,1569941253,1234B1,OK
61619528,1569941168,1234B2,OK
61613217,1569940663,1234A,OK
61503072,1569768332,1228D,OK
61502783,1569768250,1228D,RUNTIME_ERROR
61502419,1569768159,1228D,RUNTIME_ERROR
61501407,1569767880,1228D,WRONG_ANSWER
61499724,1569767420,1228D,WRONG_ANSWER
61493793,1569765929,1228B,OK
61483449,1569763711,1228C,OK
61473669,1569762467,1228A,OK
61177415,1569264280,1230E,OK
61162880,1569254012,1230E,TIME_LIMIT_EXCEEDED
61161488,1569253657,1230E,TIME_LIMIT_EXCEEDED
61153332,1569251687,1230E,TIME_LIMIT_EXCEEDED
61152787,1569251566,1230E,TIME_LIMIT_EXCEEDED
61151875,1569251386,1230E,MEMORY_LIMIT_EXCEEDED
61151582,1569251331,1230E,MEMORY_LIMIT_EXCEEDED
61126412,1569248072,1230B,OK
61122690,1569247820,1230A,OK
60980495,1569051842,1216D,OK
60970560,1569050184,1216B,OK
60968153,1569049921,1216A,OK
60638450,1568558761,1215B,OK
60638429,1568558740,1215C,WRONG_ANSWER
60638413,1568558722,1215A,OK
59756122,1567182505,1213E,OK
59755602,1567182424,1213E,WRONG_ANSWER
59754105,1567182149,1213E,WRONG_ANSWER
59753543,1567182045,1213E,WRONG_ANSWER
59752693,1567181888,1213E,WRONG_ANSWER
59748486,1567181114,1213E,WRONG_ANSWER
59746938,1567180824,1213E,WRONG_ANSWER
59745254,1567180504,1213E,WRONG_ANSWER
59741105,1567179774,1213G,OK
59733657,1567178525,1213D1,OK
59733321,1567178473,1213D2,OK
59733087,1567178435,1213D2,WRONG_ANSWER
59730143,1567177995,1213C,OK
59728230,1567177737,1213C,WRONG_ANSWER
59714992,1567176145,1213B,OK
59711110,1567175830,1213A,OK
59486860,1566755509,1208B,OK
59472814,1566747865,1208C,OK
59455078,1566744449,1208B,WRONG_ANSWER
59449692,1566743858,1208A,OK
59147777,1566312508,1204B,OK
59142030,1566311978,1204A,OK
59032602,1566140251,1206C,OK
59014179,1566137154,1206B,OK
59010943,1566136785,1206B,WRONG_ANSWER
59007788,1566136522,1206B,WRONG_ANSWER
59004684,1566136254,1206B,WRONG_ANSWER
59001694,1566136066,1206A,OK
58831046,1565805399,895C,OK
58830501,1565804510,895C,WRONG_ANSWER
58830394,1565804350,895C,MEMORY_LIMIT_EXCEEDED
58830285,1565804201,895C,MEMORY_LIMIT_EXCEEDED
58775471,1565717944,1203D2,OK
58775405,1565717907,1203D1,OK
58761248,1565713708,1203E,OK
58755257,1565712770,1203E,WRONG_ANSWER
58751219,1565712067,1203E,WRONG_ANSWER
58749046,1565711680,1203D1,OK
58746172,1565711206,1203E,WRONG_ANSWER
58737134,1565709874,1203D1,WRONG_ANSWER
58732615,1565709240,1203E,WRONG_ANSWER
58725423,1565708298,1203B,CHALLENGED
58718745,1565707420,1203C,OK
58718568,1565707390,1203C,WRONG_ANSWER
58717591,1565707190,1203A,OK
58621457,1565539463,1200C,OK
58620977,1565539135,1200B,OK
58607627,1565531700,1200D,TIME_LIMIT_EXCEEDED
58606812,1565531527,1200D,WRONG_ANSWER
58590144,1565528714,1200B,WRONG_ANSWER
58584169,1565528001,1200B,WRONG_ANSWER
58582083,1565527745,1200B,WRONG_ANSWER
58576591,1565527105,1200A,OK
57703668,1563994497,1196F,OK
57703278,1563993902,1196F,OK
57689725,1563985216,1196E,OK
57689261,1563985124,1196E,WRONG_ANSWER
57686627,1563984607,1196E,WRONG_ANSWER
57686145,1563984520,1196E,WRONG_ANSWER
57680583,1563983511,1196D2,OK
57680509,1563983498,1196D1,OK
57672043,1563982101,1196C,OK
57668627,1563981592,1196D1,WRONG_ANSWER
57663199,1563980856,1196C,TIME_LIMIT_EXCEEDED
57655977,1563979976,1196B,OK
57646961,1563979075,1196A,OK
57436337,1563685154,1178D,OK
57436229,1563684927,1178D,WRONG_ANSWER
57435916,1563684264,1178C,OK
57392957,1563638142,1178B,OK
57386999,1563637376,1178A,OK
57050457,1563121096,1194D,OK
57049285,1563120789,1194D,WRONG_ANSWER
57047437,1563120293,1194D,WRONG_ANSWER
57046318,1563120007,1194D,WRONG_ANSWER
57033386,1563117252,1194C,OK
57029068,1563116528,1194B,OK
57027172,1563116214,1194B,WRONG_ANSWER
57023006,1563115711,1194A,OK
56939049,1562957227,1191D,OK
56938667,1562956972,1191D,WRONG_ANSWER
56926861,1562947617,1191D,WRONG_ANSWER
56926093,1562947477,1191D,WRONG_ANSWER
56924802,1562947238,1191D,WRONG_ANSWER
56924641,1562947207,1191D,COMPILATION_ERROR
56923925,1562947075,1191D,WRONG_ANSWER
56921914,1562946702,1191D,WRONG_ANSWER
56920197,1562946391,1191D,WRONG_ANSWER
56917667,1562945961,1191D,WRONG_ANSWER
56902587,1562943733,1191C,OK
56898728,1562943219,1191B,OK
56892231,1562942462,1191A,OK
56656435,1562489096,1184A1,OK
56655560,1562488486,1184D1,OK
56653942,1562487333,1184B1,OK
56262346,1561797278,1186D,OK
56262250,1561797138,1186D,WRONG_ANSWER
56257719,1561790897,1183E,OK
56257709,1561790885,1183H,OK
56104958,1561563765,1183H,OK
56104183,1561563604,1183E,OK
56095538,1561561933,1183C,OK
56095175,1561561870,1183C,WRONG_ANSWER
56091567,1561561288,1183D,OK
56085378,1561560455,1183B,OK
56079886,1561559830,1183A,OK
55833775,1561040552,1185D,OK
55833701,1561040433,1185D,WRONG_ANSWER
55833632,1561040333,1185D,WRONG_ANSWER
55362824,1560095696,1176D,OK
55360322,1560095073,1176D,WRONG_ANSWER
55358086,1560094548,1176D,WRONG_ANSWER
55357734,1560094465,1176D,WRONG_ANSWER
55356788,1560094245,1176D,WRONG_ANSWER
55355231,1560093894,1176D,WRONG_ANSWER
55347450,1560092413,1176C,OK
55340019,1560091427,1176A,OK
55338253,1560091229,1176B,OK
54925434,1559401381,1148B,WRONG_ANSWER
54919323,1559400036,1148A,OK
54688263,1558890192,1169B,TIME_LIMIT_EXCEEDED
54687690,1558889964,1169B,TIME_LIMIT_EXCEEDED
54682587,1558888021,1169B,WRONG_ANSWER
54681606,1558887714,1169B,WRONG_ANSWER
54669827,1558885113,1169A,OK
54304653,1558110539,1166E,OK
54295810,1558108017,1166C,OK
54292333,1558107194,1166C,WRONG_ANSWER
54284818,1558105767,1166A,OK
54109689,1557846507,1165D,WRONG_ANSWER
54108036,1557846231,1165D,WRONG_ANSWER
54104752,1557845722,1165E,OK
54103948,1557845600,1165E,WRONG_ANSWER
53943990,1557465710,1163A,OK
53943952,1557465649,1163A,WRONG_ANSWER
53665600,1556791868,1156E,OK
53302239,1556229330,577B,OK
53301954,1556228242,118D,OK
53284211,1556198211,102062D,OK
53284094,1556198031,102062D,WRONG_ANSWER
53284022,1556197939,102062D,WRONG_ANSWER
53251018,1556122389,1152D,WRONG_ANSWER
53246238,1556121034,1152D,WRONG_ANSWER
53244619,1556120562,1152C,OK
53243422,1556120251,1152C,WRONG_ANSWER
53243095,1556120169,1152C,WRONG_ANSWER
53242365,1556119979,1152C,WRONG_ANSWER
53235900,1556118461,1152C,WRONG_ANSWER
53235319,1556118330,1152C,TIME_LIMIT_EXCEEDED
53234888,1556118237,1152B,OK
53233630,1556117958,1152B,WRONG_ANSWER
53226414,1556116664,1152A,OK
53213028,1556088794,102152D,WRONG_ANSWER
53212530,1556087586,102152J,OK
53212214,1556086831,102152I,OK
53212066,1556086462,102152I,WRONG_ANSWER
53211865,1556085907,102152I,WRONG_ANSWER
53211757,1556085652,102152H,OK
53211582,1556085251,102152G,OK
53211341,1556084539,102152E,OK
53211229,1556084245,102152F,OK
53211063,1556083861,102152C,OK
53211047,1556083820,102152C,WRONG_ANSWER
53193656,1556028332,1146B,OK
53193583,1556028225,1146B,WRONG_ANSWER
53192996,1556027242,1146A,OK
53191498,1556024712,1151C,OK
53191415,1556024599,1151C,WRONG_ANSWER
53190348,1556022797,1151D,OK
53189935,1556022126,1151B,OK
53189310,1556020876,1151A,OK
52869298,1555434238,1154G,OK
52867752,1555433074,1154D,OK
52863876,1555431995,1154D,WRONG_ANSWER
52859375,1555430982,1154D,WRONG_ANSWER
52854324,1555429841,1154C,OK
52843541,1555427629,1154C,WRONG_ANSWER
52833177,1555426013,1154B,OK
52828557,1555425492,1154A,OK
52685898,1555164810,1153A,OK
52411378,1554557453,1119D,WRONG_ANSWER
52410997,1554557348,1119D,WRONG_ANSWER
52407505,1554556150,1119D,WRONG_ANSWER
52407337,1554556086,1119D,WRONG_ANSWER
52406157,1554555672,1119D,WRONG_ANSWER
52402413,1554554389,1119E,OK
52399185,1554553389,1119C,OK
52396447,1554552678,1119B,OK
52386218,1554550894,1119A,OK
52385295,1554550763,1119A,WRONG_ANSWER
52161015,1554131395,1145A,OK
52044744,1553969402,1143C,OK
52043637,1553969061,1143C,TIME_LIMIT_EXCEEDED
52042998,1553968865,1143C,MEMORY_LIMIT_EXCEEDED
52041182,1553968333,1143C,WRONG_ANSWER
52039456,1553967891,1143C,WRONG_ANSWER
52036544,1553967138,1143B,OK
52030497,1553966010,1143A,OK
51627678,1553183007,1139B,OK
51623757,1553182596,1139A,OK
51557364,1553060954,1141E,OK
51513752,1553009719,1141E,WRONG_ANSWER
51506584,1553008580,1141E,WRONG_ANSWER
51505587,1553008385,1141E,WRONG_ANSWER
51501517,1553007766,1141E,WRONG_ANSWER
51260735,1552482809,100589A,OK
51260162,1552482001,100589A,WRONG_ANSWER
51260083,1552481899,100589A,WRONG_ANSWER
51259330,1552480885,100589A,WRONG_ANSWER
51258958,1552480329,100589A,WRONG_ANSWER
51258641,1552479831,100589A,WRONG_ANSWER
51257171,1552477707,100589J,OK
51257012,1552477489,100589J,WRONG_ANSWER
51256867,1552477255,100589J,WRONG_ANSWER
51256633,1552476875,100589J,WRONG_ANSWER
51255769,1552475607,100589H,OK
51238980,1552421651,100589B,OK
51238629,1552420816,100589G,OK
51231753,1552408601,100589G,WRONG_ANSWER
51231306,1552407836,100589I,OK
51231065,1552407411,100589C,OK
51230625,1552406588,100589F,OK
50968104,1551976954,1133F2,WRONG_ANSWER
50965269,1551976428,1133F2,WRONG_ANSWER
50963366,1551976095,1133F2,WRONG_ANSWER
50961703,1551975782,1133F2,WRONG_ANSWER
50956759,1551974933,1133F2,WRONG_ANSWER
50950114,1551973895,1133F1,OK
50947599,1551973497,1133A,OK
50944015,1551972971,1133B,OK
50940824,1551972500,1133C,OK
50937569,1551972010,1133D,OK
50934246,1551971453,1133D,WRONG_ANSWER
50774814,1551685468,568A,OK
50774725,1551685256,568A,WRONG_ANSWER
50774112,1551683735,559B,OK
50773813,1551682935,559C,OK
50746622,1551629015,1121A,OK
50744594,1551628493,1121B,OK
50743420,1551628216,1121B,TIME_LIMIT_EXCEEDED
50185478,1550591219,1118D2,WRONG_ANSWER
50184189,1550590850,1118D2,WRONG_ANSWER
50181412,1550590033,1118F1,OK
50179895,1550589599,1118F1,WRONG_ANSWER
50177432,1550588920,1118F1,WRONG_ANSWER
50176680,1550588727,1118F1,WRONG_ANSWER
50007504,1550336307,1113C,OK
50005050,1550335933,1113B,OK
50000607,1550335340,1113A,OK
49585400,1549550509,1110B,WRONG_ANSWER
49582664,1549549863,1110B,WRONG_ANSWER
49579825,1549549226,1110C,OK
49574924,1549548204,1110B,WRONG_ANSWER
49572712,1549547814,1110B,WRONG_ANSWER
49563217,1549546640,1110A,OK
49263883,1548941357,1106B,OK
49259164,1548940039,1106D,OK
49255603,1548939387,1106B,WRONG_ANSWER
49249197,1548938603,1106C,OK
49247463,1548938432,1106A,OK
48999916,1548517845,1107B,OK
48996330,1548517400,1107A,OK
48994914,1548517256,1107A,WRONG_ANSWER
48994091,1548517155,1107A,WRONG_ANSWER
48916284,1548394661,455B,WRONG_ANSWER
48914797,1548391987,109C,OK
48914244,1548390701,276C,OK
48835395,1548258392,1108E2,OK
48830119,1548257416,1108E2,TIME_LIMIT_EXCEEDED
48829111,1548257250,1108E2,TIME_LIMIT_EXCEEDED
48811274,1548255008,1108E1,OK
48644398,1548002561,1105C,OK
48644388,1548002547,1105C,MEMORY_LIMIT_EXCEEDED
48343169,1547392485,1100C,OK
48334541,1547390853,1100B,OK
48332137,1547390489,1100A,OK
48296442,1547304403,191C,OK
48293349,1547300138,374C,OK
48273268,1547265841,358D,OK
48199690,1547180420,354A,OK
48199294,1547178658,279C,OK
48193946,1547150041,368B,OK
48193320,1547148202,312B,OK
48191668,1547144272,389B,OK
48191299,1547143439,389B,WRONG_ANSWER
48191012,1547142804,373A,OK
48190811,1547142428,384A,OK
48190791,1547142374,384A,WRONG_ANSWER
48190457,1547141727,69A,OK
48190327,1547141478,71A,OK
48190208,1547141237,443A,OK
48129967,1547046439,1102E,WRONG_ANSWER
48129713,1547046392,1102E,WRONG_ANSWER
48124402,1547045495,1102E,WRONG_ANSWER
47940691,1546622407,1097F,RUNTIME_ERROR
47939798,1546621934,1097F,RUNTIME_ERROR
47939348,1546621687,1097F,RUNTIME_ERROR
47937684,1546620811,1097F,WRONG_ANSWER
47915607,1546614441,1097C,OK
47909205,1546613659,1097B,OK
47905145,1546613377,1097A,OK
47647548,1546012718,1096D,OK
47646653,1546012434,1096D,WRONG_ANSWER
47646417,1546012360,1096D,WRONG_ANSWER
47646125,1546012278,1096D,WRONG_ANSWER
47640417,1546010663,1096C,OK
47632250,1546008755,1096B,OK
47626597,1546007895,1096A,OK
47581228,1545926152,1095E,OK
47575319,1545924696,1095F,WRONG_ANSWER
47574603,1545924536,1095F,WRONG_ANSWER
47449206,1545640106,1087D,OK
47427442,1545578637,1087D,WRONG_ANSWER
47407425,1545573320,1087B,OK
47402263,1545572671,1087A,OK
47276046,1545247483,100405F,WRONG_ANSWER
47275995,1545247354,100405F,WRONG_ANSWER
47275629,1545246488,100405F,WRONG_ANSWER
47274347,1545243946,100405B,OK
47273945,1545243196,100405B,WRONG_ANSWER
47273674,1545242618,100405B,TIME_LIMIT_EXCEEDED
47272947,1545241166,100405G,OK
47272899,1545241075,100405G,TIME_LIMIT_EXCEEDED
47272839,1545240928,100405G,WRONG_ANSWER
47230836,1545156137,1092F,OK
47228951,1545153419,1092D1,OK
47225661,1545150834,1092D2,OK
47223541,1545150356,1092D2,WRONG_ANSWER
47223001,1545150200,1092D2,WRONG_ANSWER
47221869,1545149878,1092D2,WRONG_ANSWER
47220955,1545149619,1092D2,WRONG_ANSWER
47212650,1545147152,1092C,OK
47206786,1545145591,1092C,WRONG_ANSWER
47197698,1545144100,1092B,OK
47196753,1545143990,1092A,OK
47196152,1545143878,1092A,WRONG_ANSWER
47133707,1544978638,1081D,WRONG_ANSWER
47125420,1544974817,1081C,OK
47124425,1544974437,1081C,WRONG_ANSWER
47118654,1544972650,1081B,OK
47109668,1544971008,1081A,OK
46882016,1544471727,1084B,OK
46874297,1544464815,1084D,OK
46872847,1544464239,1084D,WRONG_ANSWER
46871243,1544463612,1084C,OK
46866257,1544461960,1084C,WRONG_ANSWER
46865551,1544461755,1084C,WRONG_ANSWER
46862886,1544461077,1084A,OK
46861900,1544460827,1084B,WRONG_ANSWER
46596060,1543934984,1088B,OK
46589638,1543934290,1088A,OK
46472804,1543736679,1089G,OK
46470556,1543735363,1089L,OK
45738201,1542216216,1062D,WRONG_ANSWER
45729413,1542213427,1062C,OK
45725933,1542212508,1062B,OK
45722483,1542211701,1062B,WRONG_ANSWER
45714439,1542210057,1062A,OK
45602527,1542034449,1076C,OK
45601345,1542034276,1076C,WRONG_ANSWER
45598649,1542033932,1076B,OK
45595206,1542033540,1076A,OK
45387170,1541528591,75C,OK
45291105,1541355930,1075B,OK
45288482,1541355155,1075A,OK
45166571,1541071219,15C,OK
45159419,1541058486,15C,WRONG_ANSWER
45097009,1540901830,1073C,OK
45096624,1540901248,1073E,OK
45086530,1540885293,1043F,OK
45084407,1540880152,1043E,OK
45083766,1540878252,1043D,OK
45037040,1540801087,1043C,OK
45036875,1540800794,1043B,OK
45000412,1540741675,1043B,WRONG_ANSWER
44996436,1540741128,1043A,OK
44867002,1540483237,1073D,OK
44850734,1540478844,1073B,OK
44847673,1540478438,1073A,OK
44798210,1540402249,1068A,WRONG_ANSWER
44788554,1540400374,1068A,WRONG_ANSWER
44788189,1540400317,1068A,WRONG_ANSWER
44783665,1540399651,1068B,OK
44650376,1540120868,1070C,OK
44649707,1540120107,1070C,WRONG_ANSWER
44626753,1540109972,1070C,WRONG_ANSWER
44623788,1540108808,1070C,WRONG_ANSWER
44623587,1540108410,1070C,WRONG_ANSWER
44623432,1540108125,1070C,WRONG_ANSWER
44620483,1540101649,1070A,OK
44620303,1540101213,1070A,WRONG_ANSWER
44583451,1540025983,1070F,OK
44581720,1540024807,1070H,OK
44581553,1540024707,1070H,WRONG_ANSWER
44581460,1540024652,1070D,OK
44580930,1540024270,1070D,WRONG_ANSWER
44580910,1540024260,1070K,OK
44580746,1540024162,1070K,WRONG_ANSWER
44580127,1540023764,1070D,WRONG_ANSWER
44579812,1540023516,1070D,WRONG_ANSWER
44532083,1539932538,1054D,OK
44515409,1539886676,1054D,TIME_LIMIT_EXCEEDED
44511955,1539884771,1054D,WRONG_ANSWER
44510070,1539883934,1054D,WRONG_ANSWER
44506974,1539882818,1054C,OK
44499813,1539881243,1054B,OK
44496682,1539880851,1054A,OK
44412695,1539711152,359D,OK
44412541,1539710918,359D,TIME_LIMIT_EXCEEDED
44310017,1539516749,1064D,WRONG_ANSWER
44308335,1539516148,1064C,WRONG_ANSWER
44303857,1539514624,1064C,WRONG_ANSWER
44301158,1539513736,1064B,OK
44299720,1539513310,1064C,WRONG_ANSWER
44291672,1539511695,1064A,OK
44215048,1539361393,1066D,WRONG_ANSWER
44214892,1539361349,1066D,WRONG_ANSWER
44213658,1539360993,1066D,WRONG_ANSWER
44212996,1539360793,1066D,WRONG_ANSWER
44212105,1539360533,1066D,WRONG_ANSWER
44209501,1539359775,1066B,OK
44207735,1539359269,1066E,OK
44204282,1539358378,1066E,WRONG_ANSWER
44197840,1539356877,1066B,WRONG_ANSWER
44192513,1539355698,1066A,OK
44191484,1539355466,1066C,OK
44141488,1539273521,1065B,WRONG_ANSWER
44140992,1539273384,1065B,WRONG_ANSWER
44140316,1539273201,1065C,OK
44134546,1539271905,1065A,OK
44132633,1539271557,1065B,WRONG_ANSWER
44129430,1539271031,1065B,WRONG_ANSWER
44122491,1539270108,1065A,WRONG_ANSWER
44119905,1539269803,1065A,WRONG_ANSWER
43977409,1538950441,1033D,OK
43977360,1538950194,1033D,WRONG_ANSWER
43977199,1538949701,1033D,WRONG_ANSWER
43977118,1538949461,1033D,WRONG_ANSWER
43977068,1538949321,1033D,WRONG_ANSWER
43977050,1538949277,1033D,COMPILATION_ERROR
43976879,1538948775,1033D,WRONG_ANSWER
43969064,1538937800,1033D,TIME_LIMIT_EXCEEDED
43968746,1538937630,1033D,TIME_LIMIT_EXCEEDED
43968193,1538937334,1033D,TIME_LIMIT_EXCEEDED
43967686,1538937064,1033D,TIME_LIMIT_EXCEEDED
43967366,1538936895,1033D,TIME_LIMIT_EXCEEDED
43966560,1538936476,1033D,TIME_LIMIT_EXCEEDED
43966068,1538936227,1033D,TIME_LIMIT_EXCEEDED
43961332,1538934251,1033C,OK
43957913,1538933305,1033A,OK
43957371,1538933179,1033A,RUNTIME_ERROR
43952547,1538932233,1033B,OK
43849721,1538753787,1059C,OK
43837470,1538751058,1059A,OK
43835878,1538750817,1059B,OK
43525475,1538132621,151D,OK
43316474,1537710965,1058D,OK
43316014,1537710881,1058D,SKIPPED
43313270,1537710406,1058D,TIME_LIMIT_EXCEEDED
43312725,1537710277,1058D,WRONG_ANSWER
43308696,1537709629,1058D,WRONG_ANSWER
43303755,1537708894,1058C,OK
43301394,1537708554,1058B,OK
43296530,1537708031,1058A,OK
43243040,1537613301,1046C,WRONG_ANSWER
43221077,1537555944,1047C,OK
43220989,1537555849,1047C,WRONG_ANSWER
43220395,1537555312,1047C,WRONG_ANSWER
43196632,1537542389,1047C,WRONG_ANSWER
43195367,1537542118,1047C,TIME_LIMIT_EXCEEDED
43191475,1537541423,1047B,OK
43184677,1537540684,1047A,OK
43127176,1537456552,1051C,OK
43122424,1537455852,1051B,OK
43122079,1537455803,1051B,WRONG_ANSWER
43119749,1537455448,1051A,OK
43021105,1537246724,1042D,OK
42942593,1537100013,1041D,WRONG_ANSWER
42940260,1537099238,1041D,WRONG_ANSWER
42938099,1537098534,1041D,WRONG_ANSWER
42932371,1537096813,1041C,OK
42930430,1537096303,1041C,RUNTIME_ERROR
42928568,1537095852,1041C,RUNTIME_ERROR
42923101,1537094764,1041B,OK
42918275,1537094244,1041A,OK
42762655,1536665983,796D,OK
42761764,1536664019,796C,OK
42760906,1536661862,796B,OK
42760700,1536661358,796A,OK
42726871,1536568284,869C,OK
42726706,1536567876,869C,WRONG_ANSWER
42726046,1536566069,869B,OK
42725943,1536565715,869A,OK
42638093,1536336146,1036D,OK
42637613,1536336021,1036D,TIME_LIMIT_EXCEEDED
42636277,1536335635,1036D,TIME_LIMIT_EXCEEDED
42633657,1536334893,1036D,TIME_LIMIT_EXCEEDED
42632816,1536334679,1036D,TIME_LIMIT_EXCEEDED
42626700,1536333044,1036C,OK
42623012,1536332068,1036C,WRONG_ANSWER
42622801,1536332011,1036C,WRONG_ANSWER
42622202,1536331872,1036C,WRONG_ANSWER
42620682,1536331580,1036A,OK
42620331,1536331515,1036A,WRONG_ANSWER
42603081,1536300579,1038D,OK
42587263,1536254836,1038D,WRONG_ANSWER
42586838,1536254694,1038D,WRONG_ANSWER
42585957,1536254398,1038D,WRONG_ANSWER
42584382,1536253841,1038D,WRONG_ANSWER
42584254,1536253796,1038D,WRONG_ANSWER
42582483,1536253204,1038D,WRONG_ANSWER
42582055,1536253062,1038D,WRONG_ANSWER
42581732,1536252954,1038D,WRONG_ANSWER
42580602,1536252588,1038D,WRONG_ANSWER
42579424,1536252244,1038D,WRONG_ANSWER
42576814,1536251552,1038C,OK
42576596,1536251496,1038C,WRONG_ANSWER
42576129,1536251370,1038C,WRONG_ANSWER
42572268,1536250448,1038C,WRONG_ANSWER
42570103,1536250001,1038C,WRONG_ANSWER
42565919,1536249277,1038B,OK
42565734,1536249249,1038C,WRONG_ANSWER
42564331,1536249026,1038B,SKIPPED
42559483,1536248309,1038A,OK
42395737,1535904629,1037D,OK
42394566,1535904301,1037D,WRONG_ANSWER
42390099,1535903067,1037D,WRONG_ANSWER
42389312,1535902871,1037C,OK
42387103,1535902357,1037C,WRONG_ANSWER
42384907,1535901890,1037D,WRONG_ANSWER
42381542,1535901274,1037C,WRONG_ANSWER
42380169,1535901045,1037C,WRONG_ANSWER
42378500,1535900779,1037C,WRONG_ANSWER
42370851,1535899709,1037B,OK
42368109,1535899344,1037A,OK
42355232,1535876207,864E,OK
42355166,1535876056,864E,WRONG_ANSWER
42272513,1535620610,653E,OK
42255709,1535576019,633D,OK
42255580,1535575684,633D,TIME_LIMIT_EXCEEDED
42255525,1535575525,633D,TIME_LIMIT_EXCEEDED
42172248,1535391332,1028C,WRONG_ANSWER
42170191,1535390560,1028C,SKIPPED
42169673,1535390385,1028C,SKIPPED
42165014,1535388988,1028B,OK
42163398,1535388633,1028B,WRONG_ANSWER
42162149,1535388397,1028A,OK
42056922,1535128840,1029F,WRONG_ANSWER
42056712,1535128782,1029F,WRONG_ANSWER
42056355,1535128670,1029F,WRONG_ANSWER
42056222,1535128636,1029F,WRONG_ANSWER
42056095,1535128600,1029F,WRONG_ANSWER
42055083,1535128307,1029F,WRONG_ANSWER
42054081,1535128012,1029F,WRONG_ANSWER
42053737,1535127903,1029F,WRONG_ANSWER
42051249,1535127198,1029F,WRONG_ANSWER
42050520,1535126998,1029F,WRONG_ANSWER
42049383,1535126681,1029F,WRONG_ANSWER
42045554,1535125699,1029A,OK
42044683,1535125500,1029A,WRONG_ANSWER
42039240,1535124332,1029C,OK
42035068,1535123573,1029D,TIME_LIMIT_EXCEEDED
42029750,1535122445,1029B,OK
41938771,1534860730,1025B,MEMORY_LIMIT_EXCEEDED
41925306,1534835414,1025B,OK
41868227,1534700276,1025B,MEMORY_LIMIT_EXCEEDED
41854697,1534690497,1025B,MEMORY_LIMIT_EXCEEDED
41847263,1534688574,1025C,OK
41839436,1534687015,1025A,OK
41834288,1534686320,1025B,SKIPPED
41830550,1534685988,1025A,WRONG_ANSWER
41787748,1534608713,1027C,OK
41782326,1534607486,1027C,WRONG_ANSWER
41779130,1534606810,1027C,TIME_LIMIT_EXCEEDED
41777454,1534606462,1027C,TIME_LIMIT_EXCEEDED
41771695,1534605305,1027A,OK
41771205,1534605193,1027A,WRONG_ANSWER
41770461,1534605034,1027A,WRONG_ANSWER
41770404,1534605022,1027B,OK
41519875,1534062053,101343B,OK
41492510,1533999727,1020A,OK
41491935,1533999487,1020A,WRONG_ANSWER
41486954,1533997647,1020A,WRONG_ANSWER
41485265,1533997155,1020A,WRONG_ANSWER
41475769,1533995479,1020A,WRONG_ANSWER
41472406,1533995070,1020A,WRONG_ANSWER
41471105,1533994727,1020B,OK
41463274,1533980113,101343K,OK
41462510,1533978762,101343C,OK
41461055,1533976775,101343H,OK
41460710,1533976244,101343B,OK
41460214,1533975456,101343F,OK
41459808,1533974897,101343E,OK
41459619,1533974584,101343D,OK
41459268,1533974017,101343I,OK
41459153,1533973832,101343G,OK
41362799,1533743123,1017C,WRONG_ANSWER
41362588,1533743050,1017C,WRONG_ANSWER
41361630,1533742757,1017C,WRONG_ANSWER
41359710,1533742222,1017C,WRONG_ANSWER
41357991,1533741835,1017D,OK
41355017,1533741412,1017C,WRONG_ANSWER
41354464,1533741357,1017C,WRONG_ANSWER
41348096,1533738410,1017C,WRONG_ANSWER
41344221,1533737828,1017B,OK
41339803,1533737332,1017A,OK
41189778,1533320792,1016B,WRONG_ANSWER
41060258,1533055475,1015E2,OK
41057778,1533054613,1015E1,OK
41057001,1533054445,1015E2,TIME_LIMIT_EXCEEDED
41055584,1533054106,1015E2,TIME_LIMIT_EXCEEDED
41055410,1533054066,1015E2,WRONG_ANSWER
41055363,1533054053,1015E1,OK
41054909,1533053950,1015E2,WRONG_ANSWER
41054774,1533053915,1015E1,WRONG_ANSWER
41054553,1533053863,1015E1,WRONG_ANSWER
41039047,1533050247,1015D,OK
41031492,1533048839,1015C,OK
41029532,1533048463,1015B,OK
41025478,1533047862,1015A,OK
40909211,1532850366,101853I,TIME_LIMIT_EXCEEDED
40909163,1532850254,101853I,TIME_LIMIT_EXCEEDED
40909085,1532850078,101853I,TIME_LIMIT_EXCEEDED
40908775,1532849416,101853A,WRONG_ANSWER
40908483,1532848776,101853A,WRONG_ANSWER
40908441,1532848667,101853A,WRONG_ANSWER
40908331,1532848378,101853J,OK
40908324,1532848360,101853D,OK
40908317,1532848343,101853H,OK
40882879,1532777501,101059C,OK
40882789,1532777381,101059C,MEMORY_LIMIT_EXCEEDED
40882663,1532777173,101059C,MEMORY_LIMIT_EXCEEDED
40881473,1532775163,101059C,WRONG_ANSWER
40881308,1532774922,101059C,WRONG_ANSWER
40879412,1532771822,101059B,OK
40879094,1532771237,101059C,WRONG_ANSWER
40878961,1532771009,101059C,WRONG_ANSWER
40878848,1532770868,101059C,COMPILATION_ERROR
40877877,1532769513,101059B,TIME_LIMIT_EXCEEDED
40877525,1532768963,101059B,TIME_LIMIT_EXCEEDED
40877497,1532768914,101059B,COMPILATION_ERROR
40877443,1532768832,101059B,COMPILATION_ERROR
40877201,1532768450,101059B,TIME_LIMIT_EXCEEDED
40876352,1532767208,101059B,WRONG_ANSWER
40875858,1532766464,101059A,OK
40438782,1531757117,1006F,TIME_LIMIT_EXCEEDED
40435349,1531756182,1006B,OK
40433574,1531755715,1006B,WRONG_ANSWER
40429371,1531754675,1006D,OK
40422711,1531753201,1006E,OK
40422563,1531753168,1006E,RUNTIME_ERROR
40419590,1531752533,1006C,OK
40415644,1531751890,1006A,OK
40345605,1531585208,1009B,WRONG_ANSWER
40341551,1531583933,1009D,OK
40335766,1531582221,1009A,OK
40335050,1531582019,1009C,CHALLENGED
40333901,1531581724,1009C,WRONG_ANSWER
40329146,1531580525,1009B,WRONG_ANSWER
40327977,1531580230,1009B,WRONG_ANSWER
40323973,1531579344,1009A,WRONG_ANSWER
40271978,1531493622,1008B,OK
40267536,1531493081,1008A,OK
40265703,1531492872,1008A,SKIPPED
40132372,1531153613,1005E1,OK
40126995,1531152293,1005D,OK
40125348,1531151931,1005D,WRONG_ANSWER
40123524,1531151586,1005D,WRONG_ANSWER
40121650,1531151274,1005B,OK
40120453,1531151105,1005C,OK
40117698,1531150714,1005A,OK
39999155,1530811357,1004C,OK
39996574,1530810332,1004B,OK
39991608,1530809042,1004A,OK
39929913,1530637344,1003E,OK
39929851,1530637279,1003E,WRONG_ANSWER
39927525,1530635630,1003F,WRONG_ANSWER
39927174,1530635556,1003F,WRONG_ANSWER
39925419,1530635117,1003F,WRONG_ANSWER
39923311,1530634542,1003F,WRONG_ANSWER
39919157,1530633399,1003E,CHALLENGED
39918631,1530633264,1003E,WRONG_ANSWER
39916181,1530632666,1003E,WRONG_ANSWER
39911182,1530631491,1003D,OK
39909949,1530631224,1003D,WRONG_ANSWER
39908517,1530630937,1003D,WRONG_ANSWER
39904224,1530630028,1003C,OK
39903548,1530629884,1003C,WRONG_ANSWER
39901717,1530629445,1003B,OK
39897121,1530628645,1003A,OK
39880881,1530579771,101532F,OK
39877971,1530562475,101532F,WRONG_ANSWER
39877858,1530562058,101532F,WRONG_ANSWER
39877693,1530561042,101532C,WRONG_ANSWER
39877636,1530560794,101532C,WRONG_ANSWER
39877527,1530560310,101532C,WRONG_ANSWER
39877404,1530559716,101532D,OK
39877279,1530559237,101532D,WRONG_ANSWER
39877222,1530559066,101532D,WRONG_ANSWER
39877153,1530558831,101532D,WRONG_ANSWER
39877107,1530558641,101532D,WRONG_ANSWER
39876646,1530557033,101532J,OK
39876511,1530556547,101532K,OK
39876345,1530555989,101532K,WRONG_ANSWER
39876296,1530555826,101532K,WRONG_ANSWER
39876250,1530555655,101532K,WRONG_ANSWER
39876190,1530555467,101532K,WRONG_ANSWER
39876047,1530554994,101532I,OK
39875965,1530554746,101532A,OK
39875810,1530554313,101532H,OK
39875779,1530554230,101532B,OK
39875550,1530553685,101532G,OK
39875544,1530553676,101532B,WRONG_ANSWER
39875405,1530553358,101532B,WRONG_ANSWER
39875400,1530553338,101532B,WRONG_ANSWER
39875337,1530553152,101532B,WRONG_ANSWER
39732386,1530160483,1000F,TIME_LIMIT_EXCEEDED
39732353,1530160340,1000F,RUNTIME_ERROR
39732323,1530160180,1000F,WRONG_ANSWER
39732277,1530159907,1000F,WRONG_ANSWER
39732209,1530159617,1000F,WRONG_ANSWER
39731774,1530157244,1000D,OK
39731573,1530156201,1000C,OK
39731537,1530156032,1000C,WRONG_ANSWER
39731470,1530155677,1000B,OK
39731076,1530153726,1000A,OK
39704791,1530110527,1000A,WRONG_ANSWER
39601094,1529841285,100819U,OK
39600506,1529840038,100819S,OK
39600052,1529839053,100819O,OK
39599808,1529838473,100819T,OK
39599785,1529838405,100819T,OK
39599667,1529838103,100819Q,OK
39599611,1529837978,100819T,COMPILATION_ERROR
39599603,1529837960,100819R,OK
39599521,1529837767,100819Q,WRONG_ANSWER
39599511,1529837743,100819T,COMPILATION_ERROR
39599510,1529837742,100819P,OK
39599478,1529837663,100819T,COMPILATION_ERROR
39599403,1529837509,100819N,OK
39599045,1529836760,100819M,OK
39598816,1529836295,100819M,OK
39564525,1529771137,991D,OK
39558846,1529769921,991C,OK
39553264,1529769091,991B,OK
39551933,1529768930,991A,OK
39547891,1529768519,991A,WRONG_ANSWER
39545523,1529768313,991A,WRONG_ANSWER
39524179,1529689719,101778G,OK
39524000,1529689292,101778G,TIME_LIMIT_EXCEEDED
39523956,1529689184,101778G,TIME_LIMIT_EXCEEDED
39523847,1529688925,101778G,WRONG_ANSWER
39523376,1529687915,101778B,OK
39523128,1529687285,101778A,OK
39523042,1529687082,101778A,WRONG_ANSWER
39522927,1529686835,101778A,WRONG_ANSWER
39522906,1529686784,101778A,WRONG_ANSWER
39522303,1529685284,101778C,OK
39521964,1529684480,101778E,OK
39521749,1529684033,101778H,OK
39521205,1529682814,101778I,OK
39485485,1529596504,999E,OK
39482169,1529595424,999D,OK
39480059,1529594773,999D,WRONG_ANSWER
39472049,1529592845,999C,OK
39469843,1529592480,999B,OK
39465329,1529591892,999A,OK
39389153,1529351821,992C,OK
39388394,1529346888,992C,TIME_LIMIT_EXCEEDED
39387944,1529346813,992C,TIME_LIMIT_EXCEEDED
39384912,1529346011,992C,WRONG_ANSWER
39384238,1529345809,992C,WRONG_ANSWER
39383821,1529345682,992C,WRONG_ANSWER
39383397,1529345551,992C,WRONG_ANSWER
39382992,1529345427,992C,WRONG_ANSWER
39376051,1529343424,992B,OK
39372559,1529342515,992B,WRONG_ANSWER
39371323,1529342209,992B,WRONG_ANSWER
39370839,1529342094,992B,WRONG_ANSWER
39370299,1529341960,992B,WRONG_ANSWER
39367658,1529341278,992B,WRONG_ANSWER
39365413,1529340665,992B,WRONG_ANSWER
39365179,1529340600,992B,WRONG_ANSWER
39361943,1529339923,992A,OK
39308795,1529172574,994D,WRONG_ANSWER
39307189,1529171915,994D,WRONG_ANSWER
39305565,1529171247,994D,WRONG_ANSWER
39305366,1529171174,994D,WRONG_ANSWER
39303006,1529170245,994B,WRONG_ANSWER
39300564,1529169351,994B,WRONG_ANSWER
39298844,1529168793,994B,WRONG_ANSWER
39296362,1529167998,994B,WRONG_ANSWER
39292525,1529167164,994A,OK
39208365,1528873216,628D,OK
39208329,1528873137,628D,OK
39208306,1528873071,628D,WRONG_ANSWER
39135157,1528686358,990E,OK
39135141,1528686299,990E,OK
39135058,1528685870,990E,WRONG_ANSWER
39117474,1528632177,990D,OK
39117225,1528632116,990D,WRONG_ANSWER
39111113,1528630359,990E,CHALLENGED
39110155,1528630078,990E,WRONG_ANSWER
39100632,1528627589,990C,OK
39099159,1528627250,990C,WRONG_ANSWER
39097204,1528626799,990C,WRONG_ANSWER
39094418,1528626189,990B,OK
39089685,1528625377,990A,OK
39068106,1528544323,100801B,WRONG_ANSWER
39068096,1528544304,100801B,WRONG_ANSWER
39067973,1528543979,100801B,WRONG_ANSWER
39067956,1528543927,100801B,WRONG_ANSWER
39067523,1528542883,100801L,WRONG_ANSWER
39067455,1528542707,100801L,WRONG_ANSWER
39067358,1528542470,100801L,WRONG_ANSWER
39067270,1528542210,100801L,WRONG_ANSWER
39067022,1528541520,100801A,OK
39066998,1528541448,100801A,WRONG_ANSWER
38902257,1527968925,101411B,OK
38902242,1527968878,101411D,OK
38902230,1527968829,101411D,TIME_LIMIT_EXCEEDED
38902209,1527968766,101411D,WRONG_ANSWER
38902175,1527968665,101411D,WRONG_ANSWER
38902058,1527968230,101411D,WRONG_ANSWER
38901854,1527967616,101411B,WRONG_ANSWER
38901735,1527967305,101411D,WRONG_ANSWER
38901648,1527967065,101411B,WRONG_ANSWER
38901533,1527966719,101411B,WRONG_ANSWER
38901184,1527965707,101411B,WRONG_ANSWER
38862277,1527873634,988E,OK
38862058,1527873284,988E,WRONG_ANSWER
38760023,1527656954,987C,OK
38758315,1527652208,987D,OK
38757666,1527650299,987E,OK
38747270,1527614013,987E,WRONG_ANSWER
38746385,1527613656,987E,WRONG_ANSWER
38746181,1527613585,987E,WRONG_ANSWER
38740747,1527611817,987C,OK
38725986,1527608815,987B,OK
38725276,1527608721,987B,WRONG_ANSWER
38724527,1527608612,987B,WRONG_ANSWER
38723254,1527608425,987A,OK
38653365,1527417665,101503K,OK
38653316,1527417414,101503K,RUNTIME_ERROR
38652871,1527415782,101503K,WRONG_ANSWER
38652833,1527415558,101503K,WRONG_ANSWER
38652828,1527415533,101503K,COMPILATION_ERROR
38652703,1527415003,101503L,OK
38652525,1527414355,101503L,WRONG_ANSWER
38652235,1527413445,101503A,OK
38651889,1527412241,101503H,OK
38651792,1527411930,101503J,OK
38651575,1527411317,101503B,OK
38488895,1526914557,985B,OK
38486785,1526914178,985A,OK
38180637,1526208546,978G,OK
38180025,1526208335,978G,WRONG_ANSWER
38177348,1526207353,978F,OK
38175721,1526206791,978E,OK
38175466,1526206705,978E,WRONG_ANSWER
38171575,1526205451,978E,WRONG_ANSWER
38168784,1526204621,978D,OK
38164973,1526203653,978C,OK
38161655,1526203026,978B,OK
38160181,1526202821,978B,WRONG_ANSWER
38157516,1526202461,978A,OK
38035620,1525794503,980B,WRONG_ANSWER
38034569,1525794195,980B,WRONG_ANSWER
38033969,1525794035,980B,WRONG_ANSWER
38024568,1525792098,980A,OK
37972888,1525623913,977E,OK
37961099,1525620130,977F,TIME_LIMIT_EXCEEDED
37955379,1525618946,977E,WRONG_ANSWER
37946327,1525617530,977E,WRONG_ANSWER
37944320,1525617230,977E,WRONG_ANSWER
37940941,1525616813,977B,OK
37940546,1525616776,977C,OK
37934798,1525616168,977B,WRONG_ANSWER
37931847,1525615781,977A,OK
37862155,1525350624,427C,OK
37777215,1525108182,976C,OK
37767166,1525103693,976E,WRONG_ANSWER
37766314,1525103380,976E,WRONG_ANSWER
37764431,1525102746,976E,WRONG_ANSWER
37760282,1525101506,976B,CHALLENGED
37757992,1525100890,976C,CHALLENGED
37751221,1525099436,976A,OK
37724011,1525014505,967C,WRONG_ANSWER
37720542,1525012602,967E,WRONG_ANSWER
37720005,1525012330,967E,WRONG_ANSWER
37714636,1525009960,967A,WRONG_ANSWER
37709312,1525008273,967B,OK
37626463,1524725861,965B,OK
37318141,1523695886,958F1,OK
37317763,1523695555,958F1,WRONG_ANSWER
37313873,1523692250,958F1,WRONG_ANSWER
37313612,1523692088,958F1,WRONG_ANSWER
37313546,1523692033,958F1,WRONG_ANSWER
37311970,1523690805,958C1,OK
37311463,1523690420,958B1,OK
37311280,1523690267,958B1,WRONG_ANSWER
36963857,1522853728,961B,WRONG_ANSWER
36961143,1522852889,961B,WRONG_ANSWER
36958361,1522852136,961B,WRONG_ANSWER
36957476,1522851912,961B,WRONG_ANSWER
36953080,1522851047,961A,OK
36952206,1522850903,961A,WRONG_ANSWER
36911901,1522772314,959B,OK
36909127,1522771779,959A,OK
36702052,1522263474,375D,OK
36701993,1522263309,375D,TIME_LIMIT_EXCEEDED
36701890,1522262903,375D,TIME_LIMIT_EXCEEDED
36701774,1522262561,375D,WRONG_ANSWER
36701723,1522262372,375D,WRONG_ANSWER
36701592,1522261954,375D,WRONG_ANSWER
36189105,1520750901,948D,OK
36163492,1520698907,948C,OK
36162649,1520698613,948C,WRONG_ANSWER
36155596,1520696583,948A,OK
36122772,1520611164,950C,OK
36005538,1520350245,946C,OK
36005054,1520350145,946C,WRONG_ANSWER
36003314,1520349820,946C,WRONG_ANSWER
36001982,1520349587,946C,WRONG_ANSWER
35998818,1520349126,946B,OK
35996101,1520348815,946A,OK
35941479,1520182840,931C,OK
35940883,1520182558,931C,WRONG_ANSWER
35939198,1520181787,931C,WRONG_ANSWER
35938924,1520181641,931C,WRONG_ANSWER
35935586,1520180204,931D,OK
35932236,1520179016,931B,OK
35927892,1520178018,931A,OK
35791434,1519836387,438D,OK
35788996,1519830488,940E,OK
35787407,1519827240,940D,OK
35786637,1519825866,940C,OK
35786579,1519825764,940C,WRONG_ANSWER
35786434,1519825490,940C,WRONG_ANSWER
35785781,1519824065,940B,OK
35502830,1519069557,935C,OK
35501491,1519065272,935C,WRONG_ANSWER
35500305,1519064962,935C,WRONG_ANSWER
35499088,1519064547,935C,WRONG_ANSWER
35497894,1519064139,935C,WRONG_ANSWER
35497766,1519064092,935C,WRONG_ANSWER
35486247,1519059945,935B,OK
35484382,1519059375,935B,WRONG_ANSWER
35480973,1519058714,935B,WRONG_ANSWER
35478022,1519058325,935A,OK
35407967,1518866574,939C,WRONG_ANSWER
35405318,1518865720,939C,WRONG_ANSWER
35403315,1518865125,939C,WRONG_ANSWER
35393719,1518862808,939B,WRONG_ANSWER
35392273,1518862584,939B,WRONG_ANSWER
35390222,1518862278,939A,OK
35309606,1518709546,932C,OK
35299097,1518705972,932B,OK
35296220,1518705486,932A,OK
35238238,1518611212,934B,WRONG_ANSWER
35236100,1518610907,934B,OK
35231373,1518610307,934A,OK
35185742,1518457720,300C,OK
35082241,1518163017,913C,OK
35033243,1518030794,922D,OK
35031216,1518030136,922C,OK
35030884,1518030027,922C,WRONG_ANSWER
35025506,1518028154,922C,CHALLENGED
35020239,1518026570,922B,OK
35019029,1518026274,922B,WRONG_ANSWER
35018483,1518026143,922B,WRONG_ANSWER
35018187,1518026068,922B,TIME_LIMIT_EXCEEDED
35011786,1518024758,922A,CHALLENGED
35009932,1518024444,922A,WRONG_ANSWER
35008734,1518024266,922A,WRONG_ANSWER
34944376,1517835206,482B,OK
34944300,1517835057,482B,RUNTIME_ERROR
34933794,1517806485,482B,MEMORY_LIMIT_EXCEEDED
34933763,1517806363,482B,WRONG_ANSWER
34869806,1517590488,920F,OK
34869627,1517590312,920F,WRONG_ANSWER
34869558,1517590248,920F,WRONG_ANSWER
34869181,1517589979,920F,WRONG_ANSWER
34867728,1517589151,920F,WRONG_ANSWER
34866773,1517588902,920F,WRONG_ANSWER
34865299,1517588442,920F,WRONG_ANSWER
34864558,1517588193,920F,WRONG_ANSWER
34863563,1517587862,920F,WRONG_ANSWER
34856416,1517585588,920C,OK
34852719,1517584641,920B,OK
34852037,1517584478,920B,WRONG_ANSWER
34850191,1517584047,920B,WRONG_ANSWER
34848986,1517583793,920B,WRONG_ANSWER
34843212,1517582577,920A,OK
34809507,1517502237,914D,OK
34801424,1517486769,770C,OK
34777733,1517423015,919D,OK
34777581,1517422730,919D,WRONG_ANSWER
34777402,1517422377,919D,WRONG_ANSWER
34770689,1517410787,919D,WRONG_ANSWER
34769549,1517410443,919D,WRONG_ANSWER
34768624,1517410153,919D,WRONG_ANSWER
34768376,1517410072,919D,WRONG_ANSWER
34766638,1517409522,919D,WRONG_ANSWER
34765167,1517409068,919D,WRONG_ANSWER
34765129,1517409059,919D,TIME_LIMIT_EXCEEDED
34760317,1517407719,919D,WRONG_ANSWER
34750751,1517405749,919C,OK
34748559,1517405385,919C,CHALLENGED
34742348,1517404506,919B,OK
34740934,1517404343,919B,WRONG_ANSWER
34738803,1517404125,919A,OK
34699269,1517292860,165E,OK
34684941,1517243522,918D,WRONG_ANSWER
34684829,1517243464,918D,WRONG_ANSWER
34684688,1517243408,918D,WRONG_ANSWER
34683866,1517243012,918D,WRONG_ANSWER
34668213,1517237138,918B,OK
34665495,1517236787,918A,OK
34607226,1517060281,580D,OK
34607184,1517060207,580D,MEMORY_LIMIT_EXCEEDED
34607075,1517059972,580D,MEMORY_LIMIT_EXCEEDED
34606832,1517059467,580D,MEMORY_LIMIT_EXCEEDED
34257766,1516208479,100078E,WRONG_ANSWER
34257435,1516207588,100078E,RUNTIME_ERROR
34228909,1516124699,100078E,WRONG_ANSWER
34228304,1516123105,100078E,WRONG_ANSWER
34228181,1516122800,100078E,TIME_LIMIT_EXCEEDED
34227665,1516121616,100078E,WRONG_ANSWER
34227616,1516121490,100078E,TIME_LIMIT_EXCEEDED
34227543,1516121319,100078E,TIME_LIMIT_EXCEEDED
34227444,1516120990,100078E,TIME_LIMIT_EXCEEDED
34227332,1516120692,100078E,TIME_LIMIT_EXCEEDED
34200165,1516028546,100078E,RUNTIME_ERROR
34200097,1516028360,100078E,RUNTIME_ERROR
34200034,1516028178,100078E,MEMORY_LIMIT_EXCEEDED
34199998,1516028071,100078E,RUNTIME_ERROR
34199431,1516026586,100078E,RUNTIME_ERROR
34179153,1515944139,597C,OK
34147405,1515854112,915C,WRONG_ANSWER
34146140,1515853672,915C,WRONG_ANSWER
34145324,1515853395,915C,WRONG_ANSWER
34128731,1515848949,915A,OK
34012718,1515423602,913B,OK
34007558,1515422944,913A,OK
34000244,1515403269,652A,OK
33999864,1515401613,652C,OK
33999409,1515399790,652B,OK
33946604,1515173092,912B,OK
33946306,1515172753,912B,WRONG_ANSWER
33927577,1515163537,912B,CHALLENGED
33924774,1515163195,912A,OK
33903242,1515069859,590C,OK
33793033,1514575124,908C,OK
33792648,1514574705,908C,WRONG_ANSWER
33792193,1514574341,908B,OK
33784334,1514566859,908C,WRONG_ANSWER
33775884,1514563792,908B,WRONG_ANSWER
33767657,1514562458,908A,OK
33765934,1514562321,908A,WRONG_ANSWER
33738780,1514477017,911B,WRONG_ANSWER
33738341,1514476897,911B,WRONG_ANSWER
33737823,1514476712,911B,WRONG_ANSWER
33737612,1514476623,911B,WRONG_ANSWER
33736558,1514476173,911D,OK
33733600,1514474921,911B,WRONG_ANSWER
33732031,1514474321,911B,WRONG_ANSWER
33730157,1514473616,911C,OK
33729126,1514473283,911C,WRONG_ANSWER
33727241,1514472733,911B,WRONG_ANSWER
33724635,1514472046,911B,WRONG_ANSWER
33713743,1514470079,911A,OK
33690237,1514398308,909C,WRONG_ANSWER
33690077,1514398230,909C,WRONG_ANSWER
33687725,1514397087,909C,WRONG_ANSWER
33681385,1514394570,909C,WRONG_ANSWER
33675710,1514392967,909A,OK
33670766,1514384069,906C,WRONG_ANSWER
33670699,1514383864,906C,WRONG_ANSWER
33670592,1514383602,906C,RUNTIME_ERROR
33640052,1514276919,620C,OK
33639933,1514276455,620C,WRONG_ANSWER
33639763,1514275931,26B,OK
33639660,1514275616,797B,OK
33622447,1514217350,327C,OK
33620313,1514214701,630B,OK
33620101,1514214138,630C,OK
33595905,1514127369,776C,OK
33595871,1514127209,776C,WRONG_ANSWER
33588423,1514105606,519D,OK
33558813,1514041741,907C,WRONG_ANSWER
33558364,1514041616,907C,WRONG_ANSWER
33554565,1514040680,907C,WRONG_ANSWER
33552953,1514040344,907C,WRONG_ANSWER
33552176,1514040186,907A,WRONG_ANSWER
33550434,1514039851,907A,WRONG_ANSWER
33549738,1514039728,907A,WRONG_ANSWER
33548618,1514039528,907A,WRONG_ANSWER
33545895,1514039112,907C,WRONG_ANSWER
33525857,1514006956,385C,OK
33525233,1514005228,192A,OK
33525066,1514004770,96B,OK
33524990,1514004531,96B,WRONG_ANSWER
33524923,1514004357,96B,WRONG_ANSWER
33488430,1513881973,251A,OK
33486153,1513874681,701C,OK
33485318,1513872492,701C,WRONG_ANSWER
33481972,1513864485,580B,OK
33481446,1513863384,279B,OK
33480943,1513862290,706B,OK
33480745,1513861884,706B,WRONG_ANSWER
33480249,1513860801,750A,OK
33480026,1513860326,492B,OK
33479937,1513860113,492B,WRONG_ANSWER
33433684,1513704117,902D,WRONG_ANSWER
33431965,1513703296,902C,OK
33421604,1513699592,902B,OK
33418093,1513698830,902A,OK
33414519,1513698269,902A,WRONG_ANSWER
33413654,1513698131,902A,WRONG_ANSWER
33409396,1513690054,505B,OK
33404824,1513680184,763A,OK
33402628,1513674790,500B,OK
33402276,1513673845,500B,WRONG_ANSWER
33401776,1513672620,500B,WRONG_ANSWER
33401702,1513672431,500B,WRONG_ANSWER
33401650,1513672308,500B,WRONG_ANSWER
33401525,1513671999,500B,WRONG_ANSWER
33401469,1513671838,500B,WRONG_ANSWER
33401380,1513671606,500B,WRONG_ANSWER
33401267,1513671322,500B,WRONG_ANSWER
33401149,1513670992,500B,WRONG_ANSWER
33400739,1513669829,771A,OK
33400671,1513669632,771A,WRONG_ANSWER
33400559,1513669300,771A,WRONG_ANSWER
33400409,1513668934,771A,WRONG_ANSWER
33388183,1513618750,743B,OK
33386054,1513615247,501B,OK
33382119,1513606301,469D,WRONG_ANSWER
33381888,1513605814,469D,TIME_LIMIT_EXCEEDED
33380769,1513603567,474F,OK
33380675,1513603344,474F,MEMORY_LIMIT_EXCEEDED
33380545,1513603122,474F,MEMORY_LIMIT_EXCEEDED
33380269,1513602633,474F,MEMORY_LIMIT_EXCEEDED
33372169,1513584719,277A,OK
33357239,1513525092,899F,OK
33354662,1513516701,899E,OK
33353222,1513513545,899B,OK
33341018,1513495971,899C,OK
33340382,1513495669,899C,WRONG_ANSWER
33335727,1513493888,899B,CHALLENGED
33334707,1513493580,899B,WRONG_ANSWER
33332051,1513492900,899A,OK
33316919,1513444884,789C,OK
33316781,1513444669,789C,WRONG_ANSWER
33316715,1513444548,789C,WRONG_ANSWER
33316133,1513443684,789B,OK
33315663,1513443020,789B,WRONG_ANSWER
33315586,1513442927,789B,TIME_LIMIT_EXCEEDED
33315164,1513442362,789B,WRONG_ANSWER
33315061,1513442243,789B,TIME_LIMIT_EXCEEDED
33315017,1513442190,789B,WRONG_ANSWER
33314822,1513441946,789B,WRONG_ANSWER
33314691,1513441794,789B,WRONG_ANSWER
33314552,1513441599,789B,WRONG_ANSWER
33313946,1513440954,789A,OK
33311864,1513437661,898B,OK
33311728,1513437547,898B,WRONG_ANSWER
33309106,1513430914,898E,OK
33306933,1513430092,898E,WRONG_ANSWER
33306007,1513429713,898E,WRONG_ANSWER
33299259,1513427058,898C,OK
33293086,1513425020,898B,TIME_LIMIT_EXCEEDED
33289535,1513424388,898A,OK
33272934,1513360062,522A,WRONG_ANSWER
33272886,1513359919,522A,WRONG_ANSWER
33272548,1513358905,437C,OK
33272516,1513358837,437C,RUNTIME_ERROR
33246059,1513269656,330B,OK
33244690,1513266433,687A,OK
33244435,1513265861,687A,WRONG_ANSWER
33244380,1513265747,687A,WRONG_ANSWER
33244086,1513265057,217A,OK
33243322,1513263440,755A,OK
33242774,1513262224,707B,OK
33242739,1513262149,707B,WRONG_ANSWER
33240628,1513257476,115A,OK
33240246,1513256591,520B,OK
33239920,1513255847,520B,WRONG_ANSWER
33233516,1513239312,863D,OK
33233449,1513239170,863D,WRONG_ANSWER
33218248,1513179812,353C,OK
33216559,1513175926,833A,OK
33214640,1513171601,903D,OK
33214303,1513170798,17A,OK
33207865,1513156067,797A,OK
33207468,1513155015,236B,OK
33207123,1513154112,633B,OK
33206551,1513152896,903D,WRONG_ANSWER
33206405,1513152605,903D,WRONG_ANSWER
33206314,1513152434,903D,WRONG_ANSWER
33206228,1513152297,903D,WRONG_ANSWER
33206108,1513152110,903D,WRONG_ANSWER
33205996,1513151914,346A,OK
33204276,1513147557,343A,OK
33204061,1513146920,343A,WRONG_ANSWER
33203714,1513145854,870C,OK
33203592,1513145496,870C,WRONG_ANSWER
33203557,1513145402,870C,WRONG_ANSWER
33203238,1513144385,414A,OK
33203109,1513143920,414A,WRONG_ANSWER
33202540,1513142048,414A,WRONG_ANSWER
33202511,1513141947,414A,WRONG_ANSWER
33202469,1513141767,414A,WRONG_ANSWER
33202271,1513141009,414A,WRONG_ANSWER
33201951,1513139834,235A,OK
33201699,1513138919,515B,OK
33189356,1513098319,735D,OK
33178947,1513095116,903D,CHALLENGED
33178457,1513094977,903D,TIME_LIMIT_EXCEEDED
33171481,1513093313,903B,OK
33167713,1513092640,903C,OK
33163145,1513091856,903B,WRONG_ANSWER
33159255,1513091310,903A,OK
33159184,1513091301,903A,WRONG_ANSWER
33156644,1513086264,757B,OK
33156206,1513085279,743C,OK
33155264,1513083153,762A,OK
33155102,1513082807,762A,WRONG_ANSWER
33155031,1513082572,762A,TIME_LIMIT_EXCEEDED
33154928,1513082306,742B,OK
33154776,1513081842,762A,RUNTIME_ERROR
33154663,1513081536,742B,WRONG_ANSWER
33154168,1513080421,26A,OK
33153741,1513079500,707C,OK
33152900,1513077671,199A,OK
33152656,1513077227,776B,OK
33152615,1513077134,776B,WRONG_ANSWER
33152541,1513077011,776B,WRONG_ANSWER
33152332,1513076605,576A,OK
33151778,1513075454,84A,OK
33151626,1513075075,456B,OK
33151427,1513074542,456B,WRONG_ANSWER
33151261,1513074087,682A,OK
33150890,1513073233,519C,OK
33150837,1513073108,519C,WRONG_ANSWER
33150529,1513072424,630A,OK
33150434,1513072161,822A,OK
33150343,1513071942,742A,OK
33150303,1513071846,742A,WRONG_ANSWER
33150211,1513071639,749A,OK
33150090,1513071353,577A,OK
33149912,1513070899,313A,OK
33149713,1513070312,472A,OK
33149680,1513070232,472A,WRONG_ANSWER
33149568,1513069869,122A,OK
33119057,1513010076,900D,WRONG_ANSWER
33114401,1513008936,900B,OK
33111899,1513008533,900A,OK
33082005,1512922262,798C,OK
33073990,1512888450,342E,OK
33073857,1512887985,342E,TIME_LIMIT_EXCEEDED
33073773,1512887664,342E,TIME_LIMIT_EXCEEDED
33073651,1512887231,342E,TIME_LIMIT_EXCEEDED
33005643,1512663376,567C,OK
32998985,1512646089,230B,OK
32931681,1512410140,86D,OK
32931581,1512409886,86D,OK
32931521,1512409728,86D,TIME_LIMIT_EXCEEDED
32931116,1512408456,86D,TIME_LIMIT_EXCEEDED
32931042,1512408240,86D,TIME_LIMIT_EXCEEDED
32930962,1512408000,86D,TIME_LIMIT_EXCEEDED
32930920,1512407892,86D,RUNTIME_ERROR
32930865,1512407750,86D,RUNTIME_ERROR
32926044,1512405498,220B,OK
32901388,1512312065,602B,OK
32860083,1512223554,185A,OK
32860060,1512223486,185A,TIME_LIMIT_EXCEEDED
32837232,1512151661,322E,OK
32777939,1511951846,676C,OK
32767278,1511937409,166E,OK
32766645,1511935441,166E,OK
32758849,1511896052,450B,OK
32751989,1511876384,484B,OK
32745988,1511863361,204B,OK
32745945,1511863215,204B,WRONG_ANSWER
32745918,1511863142,204B,WRONG_ANSWER
32745804,1511862798,204B,WRONG_ANSWER
32745694,1511862471,204B,WRONG_ANSWER
32745224,1511861260,204B,WRONG_ANSWER
32730558,1511800924,339D,OK
32730508,1511800796,339D,RUNTIME_ERROR
32717942,1511793542,445B,OK
32716800,1511790704,761D,OK
32673399,1511705203,474D,OK
32664841,1511682003,264B,OK
32664761,1511681855,264B,OK
32651799,1511625638,264B,WRONG_ANSWER
32651749,1511625521,264B,WRONG_ANSWER
32629708,1511548691,546D,OK
32629605,1511548473,546D,WRONG_ANSWER
32609596,1511494590,231C,OK
32609180,1511492680,416C,OK
32609136,1511492470,416C,WRONG_ANSWER
32608823,1511490718,893C,OK
32507889,1511200620,474B,OK
32507814,1511200418,474B,OK
32500014,1511182656,894A,OK
32467589,1511103193,339C,OK
32467412,1511103108,339C,WRONG_ANSWER
32451724,1511081513,282B,OK
32451677,1511081419,282B,WRONG_ANSWER
32451050,1511079751,348A,OK
32451005,1511079653,348A,WRONG_ANSWER
32435807,1511021040,600B,OK
32434060,1511015849,547B,OK
32432491,1511012180,628B,OK
32432071,1511011244,660C,OK
32424083,1510992048,665C,OK
32423943,1510991620,665C,WRONG_ANSWER
32423904,1510991536,665C,WRONG_ANSWER
32420129,1510979322,379C,OK
32408441,1510943681,538B,OK
32404250,1510935934,349B,OK
32403288,1510935531,349B,WRONG_ANSWER
32400814,1510934525,349B,WRONG_ANSWER
32400596,1510934442,349B,WRONG_ANSWER
32396982,1510933106,158D,OK
32394216,1510932241,158D,WRONG_ANSWER
32386562,1510930287,158D,WRONG_ANSWER
32370960,1510901044,706C,OK
32345457,1510803954,890A,OK
32340657,1510772387,545D,OK
32340560,1510771960,545D,WRONG_ANSWER
32314885,1510671606,659E,OK
32314387,1510670231,380C,OK
32314363,1510670174,380C,MEMORY_LIMIT_EXCEEDED
32314289,1510669981,380C,MEMORY_LIMIT_EXCEEDED
32313389,1510667410,166E,OK
32313135,1510666786,166E,OK
32313102,1510666703,166E,WRONG_ANSWER
32252664,1510503518,890B,OK
32249623,1510503087,890A,WRONG_ANSWER
32235285,1510465238,722C,OK
32235277,1510465197,722C,WRONG_ANSWER
32235234,1510465024,722C,WRONG_ANSWER
32235209,1510464900,722C,WRONG_ANSWER
32234675,1510462507,722C,WRONG_ANSWER
32234644,1510462355,722C,WRONG_ANSWER
32234628,1510462278,722C,WRONG_ANSWER
32234611,1510462125,722C,WRONG_ANSWER
32234567,1510461856,722C,WRONG_ANSWER
32204879,1510343629,271B,OK
32204523,1510342390,584D,OK
32204253,1510341613,584D,WRONG_ANSWER
32172425,1510245229,673B,OK
32103035,1509992191,670E,OK
32099316,1509981300,670E,TIME_LIMIT_EXCEEDED
32098668,1509979364,670D2,OK
32098489,1509978920,670D1,OK
32098441,1509978801,670D1,WRONG_ANSWER
32098031,1509977759,670C,OK
32097474,1509976343,670C,WRONG_ANSWER
32097425,1509976210,670C,WRONG_ANSWER
32096789,1509974622,670B,OK
32096613,1509974158,670A,OK
32052570,1509797942,242E,OK
32028417,1509730360,887B,WRONG_ANSWER
32025236,1509728716,887B,WRONG_ANSWER
32019250,1509726506,887A,WRONG_ANSWER
32014416,1509725451,887A,WRONG_ANSWER
32002088,1509699050,101510C,WRONG_ANSWER
32001759,1509698177,101510A,OK
32000614,1509696044,779C,OK
31998216,1509689558,659C,OK
31998087,1509689007,573A,OK
31997987,1509688514,461A,OK
31991251,1509651847,650A,OK
31990201,1509649224,804A,OK
31989914,1509648502,466C,OK
31960903,1509563364,489C,OK
31960876,1509563275,489C,WRONG_ANSWER
31960842,1509563157,489C,WRONG_ANSWER
31958998,1509558166,342A,OK
31958462,1509556847,441B,OK
31955445,1509550496,835B,OK
31955281,1509550188,835B,WRONG_ANSWER
31955232,1509550085,835B,WRONG_ANSWER
31955009,1509549662,835A,OK
31940059,1509518593,854C,OK
31939797,1509517940,854C,WRONG_ANSWER
31938829,1509514724,854B,OK
31938735,1509514390,854B,WRONG_ANSWER
31938627,1509513965,854B,WRONG_ANSWER
31938544,1509513576,854A,OK
31927769,1509468262,535B,OK
31921554,1509454207,463D,WRONG_ANSWER
31904287,1509392432,20C,OK
31903832,1509391153,429A,OK
31903747,1509390943,429A,WRONG_ANSWER
31902879,1509388564,574B,OK
31902745,1509388234,574B,MEMORY_LIMIT_EXCEEDED
31902458,1509387522,574B,MEMORY_LIMIT_EXCEEDED
31902414,1509387401,574B,MEMORY_LIMIT_EXCEEDED
31902327,1509387192,574B,MEMORY_LIMIT_EXCEEDED
31902277,1509387040,574B,MEMORY_LIMIT_EXCEEDED
31900782,1509383480,445B,OK
31900746,1509383384,445B,WRONG_ANSWER
31900665,1509383216,445B,WRONG_ANSWER
31899151,1509379741,601A,OK
31898467,1509378148,445A,OK
31898402,1509378001,445A,WRONG_ANSWER
31898145,1509377426,445A,WRONG_ANSWER
31897895,1509376877,445A,MEMORY_LIMIT_EXCEEDED
31897243,1509375299,780C,OK
31897184,1509375164,780C,WRONG_ANSWER
31874411,1509301116,266B,OK
31874208,1509300581,489B,OK
31873557,1509298539,515C,OK
31873503,1509298379,515C,WRONG_ANSWER
31873108,1509297256,855B,OK
31873070,1509297145,855B,WRONG_ANSWER
31872732,1509296196,377A,OK
31861637,1509268847,877E,OK
31846932,1509213333,620E,OK
31767079,1509039319,500A,OK
31766000,1509038328,377A,WRONG_ANSWER
31765932,1509038075,377A,WRONG_ANSWER
31765647,1509036792,377A,TIME_LIMIT_EXCEEDED
31765570,1509036461,377A,WRONG_ANSWER
31704182,1508924156,101498B,WRONG_ANSWER
31703927,1508923308,101498A,OK
31699361,1508909121,101498H,OK
31699102,1508908166,101498H,WRONG_ANSWER
31697233,1508899122,101498I,OK
31671228,1508827654,877D,OK
31654063,1508779387,877D,WRONG_ANSWER
31653522,1508779161,877D,WRONG_ANSWER
31637050,1508774192,877A,OK
31212639,1507715135,858A,OK
31152672,1507489296,584B,OK
30778891,1506520606,849A,OK
30778623,1506519985,849A,WRONG_ANSWER
30669439,1506263905,855A,OK
30514171,1505837117,862B,WRONG_ANSWER
30513324,1505836782,862A,WRONG_ANSWER
30511644,1505836160,862B,WRONG_ANSWER
30510075,1505835612,862A,WRONG_ANSWER
30509955,1505835570,862B,WRONG_ANSWER
30507100,1505834686,862C,WRONG_ANSWER
30505796,1505834354,862A,WRONG_ANSWER
30503615,1505833903,862A,WRONG_ANSWER
29849980,1503937607,100753F,WRONG_ANSWER
29849724,1503936728,100753F,WRONG_ANSWER
29849694,1503936568,100753F,WRONG_ANSWER
29849613,1503936275,100753F,WRONG_ANSWER
29564260,1503070009,841B,OK
29557956,1503069057,841A,OK
27074627,1494668848,794A,OK
26861902,1493916215,805D,OK
26851137,1493911902,805C,OK
26850337,1493911713,805C,WRONG_ANSWER
26847635,1493911114,805B,OK
26845292,1493910660,805B,TIME_LIMIT_EXCEEDED
26841713,1493910105,805B,WRONG_ANSWER
26838793,1493909731,805A,OK
25511695,1489592264,785C,TIME_LIMIT_EXCEEDED
25507384,1489591229,785A,OK
25506163,1489591003,785A,COMPILATION_ERROR
25409657,1489245185,765C,WRONG_ANSWER
25409646,1489245151,765C,WRONG_ANSWER
25409617,1489245084,765C,WRONG_ANSWER
25409575,1489245004,765C,WRONG_ANSWER
25409431,1489244683,765C,WRONG_ANSWER
