59876280,1567382110,600B,OK
59823693,1567275961,1208E,OK
59816462,1567265495,1207F,OK
59778465,1567215015,1207E,OK
59778446,1567214962,1207E,WRONG_ANSWER
59749501,1567181298,1213E,OK
59741046,1567179762,1213G,OK
59740662,1567179700,1213G,WRONG_ANSWER
59735265,1567178780,1213D1,OK
59734831,1567178711,1213D2,OK
59720959,1567176764,1213C,OK
59714927,1567176140,1213B,OK
59711862,1567175898,1213A,OK
59710478,1567175288,1207D,OK
59685694,1567127770,1207C,OK
59685293,1567125986,1207C,WRONG_ANSWER
59685275,1567125916,1207C,WRONG_ANSWER
59680958,1567110977,1207C,WRONG_ANSWER
59679329,1567107755,1207B,OK
59678898,1567106930,1207A,OK
59539995,1566844141,1208D,OK
59497829,1566778253,1208D,TIME_LIMIT_EXCEEDED
59476432,1566748898,1208D,WRONG_ANSWER
59467184,1566746509,1208C,OK
59466955,1566746462,1208C,RUNTIME_ERROR
59459087,1566745039,1208B,OK
59450070,1566743888,1208A,OK
59169837,1566315805,1204D2,OK
59169088,1566315618,1204D1,OK
59164142,1566314565,1204C,OK
59149852,1566312693,1204B,OK
59144351,1566312215,1204A,OK
59038054,1566141665,1206D,OK
59037435,1566141493,1206D,WRONG_ANSWER
59028101,1566139258,1206C,OK
59010996,1566136790,1206B,OK
59004166,1566136215,1206A,OK
58776812,1565719277,1203F1,OK
58759516,1565713433,1203B,OK
58757999,1565713185,1203F1,WRONG_ANSWER
58750587,1565711950,1203E,OK
58748867,1565711654,1203D1,OK
58743799,1565710845,1203D2,OK
58725903,1565708355,1203C,OK
58723306,1565708029,1203B,WRONG_ANSWER
58718475,1565707372,1203A,OK
58622061,1565539908,1200D,OK
58621946,1565539818,1200E,OK
58621801,1565539711,1200E,WRONG_ANSWER
58621585,1565539547,1200E,WRONG_ANSWER
58621250,1565539322,1200E,WRONG_ANSWER
58620873,1565539071,1200A,OK
58620831,1565539041,1200E,WRONG_ANSWER
58611648,1565532610,1200C,OK
58609874,1565532202,1200C,COMPILATION_ERROR
58609318,1565532072,1200C,COMPILATION_ERROR
58603343,1565530837,1200C,TIME_LIMIT_EXCEEDED
58603094,1565530792,1200C,COMPILATION_ERROR
58585354,1565528136,1200B,OK
58584038,1565527984,1200B,WRONG_ANSWER
58578857,1565527354,1200A,WRONG_ANSWER
58509490,1565374266,1202B,OK
58504728,1565366065,1202A,OK
58349363,1565022571,1184D1,OK
58346129,1565017425,1184C1,OK
58346018,1565017255,1184C1,WRONG_ANSWER
58345162,1565015986,1184B1,OK
58343168,1565013384,1184A1,OK
58343113,1565013317,1184A1,WRONG_ANSWER
58238846,1564868880,1187D,OK
58238785,1564868665,1187D,RUNTIME_ERROR
58237833,1564865640,1187D,WRONG_ANSWER
58237808,1564865583,1187D,RUNTIME_ERROR
58237531,1564864847,1187D,RUNTIME_ERROR
58233525,1564855778,1187C,OK
58233509,1564855739,1187C,OK
58230006,1564849201,1187E,OK
58229911,1564849035,1187E,WRONG_ANSWER
58229841,1564848902,1187E,WRONG_ANSWER
58227733,1564845313,1187B,OK
58226837,1564843803,1187A,OK
58095713,1564602109,1199E,OK
58030447,1564504076,1199F,OK
58025770,1564503017,1199F,SKIPPED
58016726,1564501105,1199D,OK
58016212,1564501000,1199D,RUNTIME_ERROR
58006284,1564499191,1199C,OK
57997998,1564498041,1199B,OK
57995810,1564497752,1199A,OK
57958769,1564431912,1182B,OK
57958743,1564431847,1182B,WRONG_ANSWER
57958382,1564430980,1182A,OK
57817320,1564172869,1196F,OK
57816283,1564170758,1185G1,OK
57812185,1564163607,1195E,OK
57767174,1564089481,1197D,OK
57767132,1564089362,1197D,WRONG_ANSWER
57704764,1563996255,1196E,OK
57701782,1563991704,1196D1,OK
57701751,1563991665,1196D2,OK
57699193,1563988845,1196D1,WRONG_ANSWER
57685856,1563984465,1196D2,WRONG_ANSWER
57666974,1563981362,1196C,OK
57661774,1563980671,1196B,OK
57658386,1563980253,1196B,WRONG_ANSWER
57652463,1563979556,1196A,OK
57551987,1563817974,1197D,RUNTIME_ERROR
57551954,1563817917,1197D,COMPILATION_ERROR
57551359,1563817017,1197D,RUNTIME_ERROR
57551086,1563816619,1197D,RUNTIME_ERROR
57547369,1563813261,1197D,RUNTIME_ERROR
57547135,1563813220,1197D,MEMORY_LIMIT_EXCEEDED
57546294,1563813036,1197D,RUNTIME_ERROR
57525604,1563807869,1197C,OK
57522189,1563807367,1197B,OK
57514316,1563806458,1197A,OK
57474722,1563741080,1194E,OK
57418736,1563645370,1178D,OK
57416830,1563644598,1178E,OK
57416475,1563644458,1178E,WRONG_ANSWER
57403972,1563640358,1178C,OK
57391939,1563637996,1178B,OK
57386769,1563637347,1178A,OK
57344011,1563569866,1181C,OK
57343720,1563568974,1181C,WRONG_ANSWER
57343512,1563568315,1181C,WRONG_ANSWER
57342339,1563564975,1181B,OK
57341765,1563563130,1181A,OK
57298127,1563482468,1185F,OK
57238710,1563381242,1195D2,OK
57234784,1563380293,1195D2,WRONG_ANSWER
57234673,1563380261,1195D1,OK
57233639,1563379976,1195D2,WRONG_ANSWER
57217555,1563376489,1195C,OK
57212452,1563375705,1195B,OK
57207059,1563374953,1195A,OK
57165051,1563313764,1185E,OK
57163807,1563310040,1185D,OK
57163589,1563309569,1185D,WRONG_ANSWER
57163452,1563309233,1185D,WRONG_ANSWER
57163385,1563309064,1185D,WRONG_ANSWER
57162965,1563308125,1185C1,OK
57162956,1563308103,1185C2,OK
57162433,1563306852,1185B,OK
57162099,1563306139,1185A,OK
57042908,1563119182,1194D,OK
57033639,1563117298,1194C,OK
57029080,1563116530,1194B,OK
57023418,1563115761,1194A,OK
56944656,1562965539,1161C,OK
56939260,1562957383,1191F,TIME_LIMIT_EXCEEDED
56929615,1562948128,1191F,WRONG_ANSWER
56922533,1562946809,1191D,OK
56920429,1562946435,1191D,WRONG_ANSWER
56919960,1562946348,1191D,WRONG_ANSWER
56917575,1562945945,1191D,WRONG_ANSWER
56906514,1562944278,1191C,OK
56898999,1562943258,1191B,OK
56890943,1562942364,1191A,OK
56859194,1562877226,1186D,OK
56858813,1562876236,1186C,OK
56858715,1562876016,1186C,WRONG_ANSWER
56858012,1562874149,1186A,OK
56817932,1562790824,1161B,OK
56817853,1562790570,1161B,WRONG_ANSWER
56817124,1562788537,1161B,WRONG_ANSWER
56815369,1562784426,1161A,OK
56767836,1562700402,1189E,OK
56767499,1562699696,1189D2,OK
56767458,1562699610,1189D2,WRONG_ANSWER
56582227,1562343376,1189D1,OK
56579044,1562342455,1189C,OK
56573028,1562341107,1189B,OK
56562064,1562339390,1189A,OK
56531321,1562270079,1158B,OK
56529364,1562266154,1158A,OK
56529341,1562266113,1158A,WRONG_ANSWER
56447744,1562096753,1168C,OK
56447707,1562096695,1168C,WRONG_ANSWER
56446655,1562094617,1168B,OK
56445246,1562092233,1168A,OK
56400544,1561999117,1172B,OK
56399086,1561996825,1172B,WRONG_ANSWER
56398040,1561995085,1172A,OK
56397707,1561994534,1172A,WRONG_ANSWER
56290564,1561853633,864E,OK
56290547,1561853564,864E,WRONG_ANSWER
56281758,1561828356,16E,OK
56116145,1561566419,1183E,OK
56115420,1561566238,1183H,OK
56106090,1561564012,1183G,OK
56097216,1561562260,1183D,OK
56096568,1561562131,1183D,TIME_LIMIT_EXCEEDED
56095835,1561561988,1183D,TIME_LIMIT_EXCEEDED
56091981,1561561357,1183C,OK
56084753,1561560379,1183B,OK
56081373,1561559977,1183A,OK
55845981,1561065898,18E,OK
55843433,1561058978,2B,TIME_LIMIT_EXCEEDED
55843327,1561058731,2B,TIME_LIMIT_EXCEEDED
55843095,1561058126,2B,TIME_LIMIT_EXCEEDED
55842868,1561057590,2B,TIME_LIMIT_EXCEEDED
55842802,1561057458,2B,WRONG_ANSWER
54816937,1559162980,4D,OK
